1,2,3,4,5,0
-9.840360871749e-05,9.426364158571232e-06,1.6797737771412358e-05,-1.793141450434632e-06,-3.779312464757823e-05,1739367206846.617
-9.544303611619398e-05,7.915990863693878e-06,1.7237054635188542e-05,-1.1308708280921564e-06,-4.203345815767534e-05,1739367206847.118
-8.06219395599328e-05,6.949399448785698e-06,1.8320120943826623e-05,-2.733531232479436e-07,-4.725980033981614e-05,1739367206847.619
-4.93392362841405e-05,7.756207196507603e-06,1.858312498370651e-05,-7.005414204286353e-07,-4.989278386346996e-05,1739367206848.12
-2.7722602681024e-05,9.992098057409748e-06,1.951374179043341e-05,1.937096385518089e-06,-4.9551530537428334e-05,1739367206848.6206
-5.217667785473168e-05,1.2412099749781191e-05,1.8390310287941247e-05,5.741339919040911e-06,-4.696433461504057e-05,1739367206849.1216
-0.0001182970881927,1.3692164429812692e-05,1.5239908861985896e-05,8.558010449633002e-06,-4.543847535387613e-05,1739367206849.6226
-0.0001772289397194,1.558751318953e-05,1.543377584312111e-05,1.0289332749380264e-05,-4.582842666422948e-05,1739367206850.1235
-0.0001940252404892,1.6744585082051344e-05,1.566946775710676e-05,8.161033292708453e-06,-4.629764953278936e-05,1739367206850.6245
-0.0001787582295946,1.816541043808684e-05,1.7211243175552227e-05,5.998110282234848e-06,-4.653712312574498e-05,1739367206851.1252
-0.0001652850041864,1.7142989236162975e-05,1.926701770571526e-05,7.1099148044595495e-06,-4.692775473813526e-05,1739367206851.6262
-0.000163505304954,1.4803573321842125e-05,1.938254172273446e-05,8.644200534035917e-06,-4.507111952989362e-05,1739367206852.127
-0.000164698343724,1.3511717043002136e-05,1.8705159163801e-05,9.480881999479608e-06,-4.281393194105476e-05,1739367206852.628
-0.0001599434617673,1.2447169865481555e-05,1.8443992303218693e-05,8.98567395779537e-06,-4.369336238596589e-05,1739367206853.129
-0.0001475677418056,1.2483159480325412e-05,1.9937411707360297e-05,7.251695024024229e-06,-4.684976011049002e-05,1739367206853.63
-0.00012409966439,1.2901545233034994e-05,2.253928323625587e-05,8.076252015598584e-06,-4.959498983225785e-05,1739367206854.1306
-9.384833538206294e-05,1.2809033250960056e-05,2.3858752683736384e-05,1.138153766078176e-05,-5.016308932681568e-05,1739367206854.6316
-6.723801197949797e-05,1.14855929496116e-05,2.380429214099422e-05,1.3657442650583109e-05,-4.94476298626978e-05,1739367206855.1326
-4.300435830373317e-05,1.1015486052201595e-05,2.386935921094846e-05,1.3347877029445954e-05,-4.783664189744741e-05,1739367206855.6335
-1.4605359865527134e-05,1.1544536391738802e-05,2.379685247433372e-05,1.075555155694019e-05,-4.644463115255349e-05,1739367206856.1345
1.6147501810337417e-05,1.091130980057642e-05,2.387398671999108e-05,8.173008609446697e-06,-4.621210973709822e-05,1739367206856.6353
3.655651744338684e-05,9.505595699010884e-06,2.2943906515138224e-05,6.011168807162903e-06,-4.6007789933355525e-05,1739367206857.1362
4.277255720808171e-05,9.114127351494972e-06,2.0354142179712653e-05,5.428402346296934e-06,-4.4565553253050894e-05,1739367206857.6372
4.23337914980948e-05,9.356751434097532e-06,1.7665279301581904e-05,5.955625056230929e-06,-4.408768290886656e-05,1739367206858.138
3.989258038927801e-05,1.0883831237151751e-05,1.6981512089842e-05,5.341555606719339e-06,-4.435870505403727e-05,1739367206858.639
2.778290399874095e-05,1.2550184692372568e-05,1.636130218685139e-05,5.5239970606635325e-06,-4.263159280526452e-05,1739367206859.14
3.227676870665164e-06,1.2254289686097763e-05,1.5803361748112366e-05,5.646871159115108e-06,-3.933087646146305e-05,1739367206859.6409
-2.887395748985e-05,1.0127499990630897e-05,1.575429632794112e-05,4.1112489270744845e-06,-3.783280408242717e-05,1739367206860.1416
-5.512234201887623e-05,7.82314600655809e-06,1.5671352230128832e-05,2.29876764024084e-06,-3.8019774365238845e-05,1739367206860.6426
-6.639222556259483e-05,6.317132829281036e-06,1.4570960047421975e-05,-3.6469498354563257e-07,-3.794710573856719e-05,1739367206861.1436
-6.341492553474382e-05,6.115438281995012e-06,1.4319815818453208e-05,-2.8126851248089224e-06,-3.9168287912616506e-05,1739367206861.6443
-5.5913998949108645e-05,5.697233518731082e-06,1.6828978914418258e-05,-2.0435584247024963e-06,-4.0519473259337246e-05,1739367206862.1453
-5.0521517550805584e-05,5.157604846317554e-06,1.958078792085871e-05,8.349343261215836e-07,-4.125568739254959e-05,1739367206862.6462
-4.0215618355432525e-05,4.961536433256697e-06,2.2027028535376303e-05,1.5966745650075609e-06,-4.12985282309819e-05,1739367206863.1472
-2.055718323390465e-05,7.1340746217174456e-06,2.8557575205923055e-05,1.4333646731756744e-06,-4.128210275666788e-05,1739367206863.6482
6.690823738608742e-06,1.0863965144380929e-05,4.519841604633257e-05,-8.883943110049586e-07,-4.0322269342141226e-05,1739367206864.149
4.151764733251184e-05,1.3774983017356137e-05,5.961703573120758e-05,-2.849494421752752e-06,-3.889056824846193e-05,1739367206864.65
8.27435142127797e-05,1.60709550982574e-05,5.932547355769202e-05,-2.3367982748823127e-07,-3.816426396952011e-05,1739367206865.151
0.0001281551230931,1.7078953533200547e-05,5.746816168539226e-05,3.2913619634200586e-06,-3.639707938418724e-05,1739367206865.652
0.0001597688678884,1.869330662884749e-05,6.27852205070667e-05,4.417883701535175e-06,-3.529780951794237e-05,1739367206866.1526
0.0001513657625764,2.148334533558227e-05,6.141783524071798e-05,3.163776455039624e-06,-3.6068719055037946e-05,1739367206866.6536
9.751020115800202e-05,2.301087624800857e-05,4.099614670849405e-05,1.2470501360439812e-06,-3.677293352666311e-05,1739367206867.1543
2.8803264285670597e-05,2.1661358914570883e-05,1.1231318239879329e-05,4.675684408539383e-07,-3.744262721738778e-05,1739367206867.6555
-1.1808927411038894e-05,1.8460943465470336e-05,-1.4437458958127536e-05,1.510336119281419e-06,-3.922123505617492e-05,1739367206868.1562
-4.518580226431368e-06,1.656054701015819e-05,-2.869962190743536e-05,1.7222185988430283e-06,-4.061891013407149e-05,1739367206868.6572
3.332400228828192e-05,1.4661461136711296e-05,-3.1141233193920925e-05,1.3229463320385548e-06,-3.9240479964064434e-05,1739367206869.1582
5.738238542107865e-05,1.2110962416045368e-05,-2.486822995706461e-05,2.140764308933285e-06,-3.616210233303718e-05,1739367206869.6592
3.441895023570396e-05,1.0453063623572234e-05,-1.6444460925413296e-05,3.0310015972645488e-06,-3.416260733501986e-05,1739367206870.16
-2.932362986030057e-05,1.078101649909513e-05,-9.154330655292142e-06,2.372789140281384e-06,-3.558394018909894e-05,1739367206870.661
-9.81633274932392e-05,1.1742044080165217e-05,-3.0451928978436622e-06,3.440801208398625e-07,-3.981846020906232e-05,1739367206871.162
-0.0001450381678296,1.1406184967199806e-05,1.7538023939778211e-06,-2.128729420292075e-06,-4.183305281912908e-05,1739367206871.6626
-0.0001649173063924,1.0505893442314118e-05,6.300333552644588e-06,-3.4629508718353463e-06,-4.145156344748102e-05,1739367206872.1636
-0.0001700075663393,1.031396914186189e-05,9.693657375464682e-06,-2.949769623228349e-06,-4.228166289976798e-05,1739367206872.6646
-0.0001709427160676,1.0492309229448438e-05,1.36734443003661e-05,-1.945411668202724e-06,-4.439307667780668e-05,1739367206873.1655
-0.0001646166638238,1.0243283213640098e-05,1.8460541468812156e-05,-1.5518841109951609e-06,-4.727987834485248e-05,1739367206873.6665
-0.0001520841033197,9.812710231926758e-06,2.3095173673937097e-05,-4.418705543685064e-07,-4.866408562520519e-05,1739367206874.1672
-0.000145136276842,9.018206583277788e-06,2.520104499126319e-05,-1.5801403208115516e-07,-4.808001176570542e-05,1739367206874.6682
-0.000147422630107,9.10387734620599e-06,2.578963358246256e-05,7.591133339701628e-07,-4.856511441175826e-05,1739367206875.1692
-0.0001491401635576,9.603810212865938e-06,2.6465437258593735e-05,1.7925626707437914e-06,-4.934424578095786e-05,1739367206875.67
-0.0001428323012078,1.0952120646834372e-05,2.8785976610379294e-05,4.767493351209851e-07,-5.045789657742717e-05,1739367206876.171
-0.0001335544657194,1.060559952748008e-05,2.9987975722178817e-05,7.956599006320175e-07,-5.136855543241836e-05,1739367206876.672
-0.0001216019954881,1.0285904863849282e-05,2.719015537877567e-05,1.6479204987263074e-06,-4.926779365632683e-05,1739367206877.1729
-0.000105298066046,1.197709389089141e-05,2.582457454991527e-05,2.6097345653397497e-06,-4.651150084100664e-05,1739367206877.6736
-8.443821570836008e-05,1.3436630069918463e-05,2.5973389710998163e-05,4.106884716748027e-06,-4.500865179579705e-05,1739367206878.1746
-6.093035699450411e-05,1.4242164070310537e-05,2.5292982172686607e-05,4.785415057995124e-06,-4.369438829598949e-05,1739367206878.6755
-3.764365101233125e-05,1.4023908079252578e-05,2.437848161207512e-05,6.37202992948005e-06,-4.156996146775782e-05,1739367206879.1765
-1.5174788131844252e-05,1.371763846691465e-05,2.4526665583834983e-05,9.534720447845755e-06,-3.848366031888872e-05,1739367206879.6772
6.027576546330238e-06,1.341692950518336e-05,2.51408255280694e-05,1.387839347444242e-05,-3.683039176394232e-05,1739367206880.1782
2.193045111198444e-05,1.2138671081629582e-05,2.4161483452189717e-05,1.6200498066609725e-05,-3.660996299004182e-05,1739367206880.6792
2.862596738850698e-05,1.1922327757929452e-05,2.3580629203934222e-05,1.4708803064422682e-05,-3.691574966069311e-05,1739367206881.1802
2.5822662792052142e-05,1.307781622017501e-05,2.181226409447845e-05,1.1806162547145505e-05,-3.712508623721078e-05,1739367206881.681
1.812057416827884e-05,1.2856453395215794e-05,1.9628496374934912e-05,9.060024240170604e-06,-3.735451537068002e-05,1739367206882.182
1.1237959370191676e-05,1.1777365216403268e-05,1.8723008906817995e-05,6.444956397899659e-06,-3.849545100820251e-05,1739367206882.6829
1.118931049859384e-05,1.1465574061730877e-05,1.9894017896149307e-05,5.0451612878532615e-06,-3.835672032437287e-05,1739367206883.1838
2.3563117792946286e-05,1.1592381270020267e-05,2.1580844986601733e-05,4.56237512480584e-06,-3.642426963779144e-05,1739367206883.6846
4.643014835892245e-05,1.2434967175067868e-05,2.289009898959193e-05,3.316859874757938e-06,-3.523886698530987e-05,1739367206884.1855
6.94260306772776e-05,1.3111392945575062e-05,2.380660043854732e-05,2.850052624125965e-06,-3.52547322108876e-05,1739367206884.6863
8.01889254944399e-05,1.38165687531e-05,2.384877552685793e-05,4.083819021616364e-06,-3.5414723242865875e-05,1739367206885.1875
7.396335422527045e-05,1.4493822163785808e-05,2.3534430511062965e-05,4.235159849486081e-06,-3.6621757317334414e-05,1739367206885.6882
5.646827048622072e-05,1.425557456968818e-05,2.233031227660831e-05,2.2221847757464275e-06,-3.8806028896942735e-05,1739367206886.1892
4.315270416554995e-05,1.3653491805598604e-05,2.119308555847965e-05,1.2268217233213363e-06,-3.801787534030154e-05,1739367206886.6902
4.711175643024035e-05,1.2546007383207323e-05,2.1272042431519367e-05,2.214326968896785e-06,-3.663987445179373e-05,1739367206887.1912
6.547992961714044e-05,1.3114939974911977e-05,2.2335820176522247e-05,2.78549532595207e-06,-3.814604497165419e-05,1739367206887.692
6.874990504002199e-05,1.4199600627762266e-05,2.188249527534936e-05,5.349475031835027e-06,-4.052339500049129e-05,1739367206888.1929
2.364310603297781e-05,1.2140702892793342e-05,2.0529123503365557e-05,7.87956923886668e-06,-4.318995706853457e-05,1739367206888.6938
-7.680792623432353e-05,1.0843943528016098e-05,2.214744199591223e-05,4.7207463467202615e-06,-4.398448436404578e-05,1739367206889.1946
-0.0001743022294249,1.2378572137095034e-05,2.887475602619816e-05,2.39653081735014e-06,-4.396332224132493e-05,1739367206889.6956
-0.0002213539846707,1.2944914487889037e-05,3.3639895264059305e-05,3.451328893788741e-06,-4.186683509033173e-05,1739367206890.1963
-0.0002262967900605,1.3161650713300332e-05,3.231437221984379e-05,4.305506536184112e-06,-3.99739874410443e-05,1739367206890.6975
-0.0002047829475486,1.206200886372244e-05,2.7830672479467463e-05,2.8767747153324308e-06,-4.203293428872712e-05,1739367206891.1982
-0.0001722109591355,9.80282129603438e-06,2.3400656573357992e-05,2.1949476831650827e-06,-4.508677011472173e-05,1739367206891.6992
-0.0001353990228381,8.714468094694894e-06,1.9322566004120745e-05,2.4836203920131084e-06,-4.70352970296517e-05,1739367206892.2002
-0.0001061538496287,8.805045581539162e-06,1.6266196325886995e-05,3.0863675419823267e-06,-4.814136991626583e-05,1739367206892.7012
-8.041255205171183e-05,9.48066826822469e-06,2.0716992366942577e-05,3.860645392705919e-06,-4.959157013217919e-05,1739367206893.202
-5.128745033289306e-05,1.0357767678215168e-05,3.771271440200508e-05,2.4045657482929528e-06,-5.07548356836196e-05,1739367206893.703
-1.9687819076352756e-05,1.071018232323695e-05,5.7797205954557285e-05,-8.05870456588309e-07,-5.179119762033224e-05,1739367206894.204
6.388195288309362e-06,1.0790844498842487e-05,6.305944407358766e-05,-4.528809768089559e-06,-5.199572115088813e-05,1739367206894.7048
1.851478373282589e-05,1.0365172784077004e-05,5.0809809181373566e-05,-4.989542503608391e-06,-5.237992081674747e-05,1739367206895.2056
1.0712461516959593e-05,1.0428498171677347e-05,2.9808074032189324e-05,-4.418991920829285e-06,-5.209280061535537e-05,1739367206895.7063
-1.931217775563709e-05,1.0401401596027426e-05,1.0062314686365426e-05,-4.600934062182205e-06,-5.165613038116135e-05,1739367206896.2075
-6.391326314769685e-05,1.1163822819071356e-05,-5.901442818867508e-06,-4.28531939178356e-06,-5.252149640000425e-05,1739367206896.7085
-0.0001112070967792,1.309019990003435e-05,-1.7909000234794803e-05,-2.1324294721125625e-06,-5.405860429164022e-05,1739367206897.2092
-0.0001476225297665,1.4805001228523906e-05,-2.221763315901626e-05,-1.2339939985395176e-06,-5.555137249757536e-05,1739367206897.7102
-0.0001689585769781,1.5392024579341523e-05,-1.8874750821851197e-05,-2.865132501028711e-06,-5.5114487622631714e-05,1739367206898.2112
-0.0001726489281281,1.3821782886225265e-05,-1.2472835805965587e-05,-2.8073009161744267e-06,-5.203590262681246e-05,1739367206898.7122
-0.0001590394094819,1.1579313650145195e-05,-6.191525699250633e-06,-1.3688211311091436e-06,-4.911068026558496e-05,1739367206899.213
-0.0001365250063827,1.0773031135613564e-05,-6.433634212044126e-07,-4.3860231357939483e-07,-4.7801546315895393e-05,1739367206899.714
-0.0001169211027445,1.258948668692028e-05,4.472162345336983e-06,-3.627625062563311e-07,-4.67297577415593e-05,1739367206900.2148
-9.778157982509585e-05,1.4194256436894648e-05,7.936287147458643e-06,-7.891475206633913e-07,-4.66067976958584e-05,1739367206900.7158
-7.544092659372836e-05,1.304527268075617e-05,9.011575457407162e-06,4.496923793340102e-07,-4.667450048145838e-05,1739367206901.2166
-5.815241456730291e-05,1.0575365195109043e-05,1.0574425687082112e-05,5.01210990933032e-07,-4.61388990515843e-05,1739367206901.7175
-4.927186819259077e-05,1.089093984774081e-05,1.2761642210534774e-05,-4.346470632299315e-07,-4.367588189779781e-05,1739367206902.2185
-4.1571107431082055e-05,1.2955194506503176e-05,1.2794625035894567e-05,-1.3961855529487366e-06,-4.098407953279093e-05,1739367206902.7195
-3.5724446206586435e-05,1.266034996660892e-05,1.0452211427036673e-05,-4.132431058678776e-06,-4.230739432387054e-05,1739367206903.2202
-2.8677904992946424e-05,1.1176019143022131e-05,9.899718861561269e-06,-3.929732883989345e-06,-4.232190622133203e-05,1739367206903.7212
-2.2434765924117528e-05,1.0073578778246883e-05,9.146076990873551e-06,-2.521383521525422e-06,-3.915219349437393e-05,1739367206904.2222
-1.699870881566312e-05,9.596518793841824e-06,1.1012532013410237e-05,-2.839484068317688e-06,-3.802268474828452e-05,1739367206904.7231
-8.876305400917772e-06,1.031866304401774e-05,1.2927180250699166e-05,-2.1424732494779164e-06,-3.8892103475518525e-05,1739367206905.224
-5.187072019907646e-06,1.1701512448780704e-05,1.3422707525023723e-05,2.550513897858764e-07,-4.069682108820416e-05,1739367206905.7249
-3.838826614810387e-06,1.2156302545918152e-05,1.4763792933081277e-05,1.4791136209169051e-06,-4.177588925813325e-05,1739367206906.2258
-2.5221388568752445e-06,1.1180683031852824e-05,1.6256881281151436e-05,2.8866757020296063e-06,-4.114014518563636e-05,1739367206906.7268
-7.971841000653512e-07,1.1178767636010887e-05,1.7649781511863694e-05,5.31568593942211e-06,-3.904125696863048e-05,1739367206907.2275
1.6089254586404422e-06,1.154580240836367e-05,1.9313598386361264e-05,5.668037374562118e-06,-3.679842848214321e-05,1739367206907.7285
4.3233267206233e-06,1.3011103874305263e-05,2.250823308713734e-05,3.292397877885378e-06,-3.557399395504035e-05,1739367206908.2295
6.248356839932967e-06,1.405506282026181e-05,2.37377462326549e-05,1.984624759643338e-06,-3.556255251169205e-05,1739367206908.7302
8.071307092905045e-06,1.3555096302297898e-05,2.2725720555172305e-05,3.852455392916454e-06,-3.562847268767655e-05,1739367206909.2312
7.80413938628044e-06,1.2573328604048584e-05,2.0267314539523795e-05,7.057235052343458e-06,-3.524748171912506e-05,1739367206909.7322
5.812120889459038e-06,1.2852307918365112e-05,1.8952534446725625e-05,9.039246833708605e-06,-3.575862865545787e-05,1739367206910.2332
2.823156592057785e-06,1.3358659998630174e-05,1.8655988242244348e-05,9.31886097532697e-06,-3.702515823533759e-05,1739367206910.734
6.081400556467997e-07,1.4549511433870066e-05,1.9460705516394228e-05,9.480802873440553e-06,-3.833995288005099e-05,1739367206911.2349
-8.597683063271688e-07,1.7351469068671577e-05,2.019071507675108e-05,8.747012543608434e-06,-3.9041111449478194e-05,1739367206911.7358
-3.568031388567761e-06,1.957012682396453e-05,2.0664174371631816e-05,7.399783044093056e-06,-3.816966273006983e-05,1739367206912.2368
-7.764855581626762e-06,1.9260243789176457e-05,2.1394147552200596e-05,7.044265657896176e-06,-3.680867303046398e-05,1739367206912.7375
-1.0691444913391024e-05,1.777119359758217e-05,2.2493701180792414e-05,9.312973816122394e-06,-3.7535286537604406e-05,1739367206913.2383
-1.1177178748766892e-05,1.771105053194333e-05,2.2591488232137635e-05,1.1315524716337675e-05,-3.9411639590980485e-05,1739367206913.7395
-9.110352948482614e-06,1.6985901311272755e-05,2.1193021893850528e-05,8.82006042957073e-06,-4.072844603797421e-05,1739367206914.2405
-6.13617748967954e-06,1.583118864800781e-05,2.0507441149675287e-05,5.35643766852445e-06,-4.187320519122295e-05,1739367206914.7412
-4.596959570335457e-06,1.4993355762271676e-05,2.122221303579863e-05,6.061372914700769e-06,-4.199584145681001e-05,1739367206915.2422
-3.5432051390671404e-06,1.3959295756649226e-05,2.2964000891079195e-05,6.643741016887361e-06,-4.131048990529962e-05,1739367206915.7432
-2.093511511702673e-06,1.2445928405213635e-05,2.4474829842802137e-05,4.436361450643744e-06,-4.069923670613207e-05,1739367206916.244
-1.3319635172592823e-06,1.1847858331748284e-05,2.3986502128536813e-05,2.6359825824329164e-06,-3.9999664295464754e-05,1739367206916.7449
-4.089837602805346e-06,1.2753343980875798e-05,2.425575257802848e-05,1.6571140122323411e-06,-4.099132274859585e-05,1739367206917.2458
-1.2068403520970604e-05,1.4301151168183424e-05,2.4163269699784e-05,2.247409838673775e-06,-4.195731889922172e-05,1739367206917.7468
-2.6568612156552263e-05,1.3424986718746368e-05,2.1670373826054856e-05,4.328868271841202e-06,-4.189352330286056e-05,1739367206918.2478
-4.3067575461464e-05,1.253642767551355e-05,2.063480314973276e-05,4.528360932454234e-06,-4.155100032221526e-05,1739367206918.7483
-5.822231833008118e-05,1.2002130461041816e-05,2.2699487089994363e-05,1.7916294154929346e-06,-4.074961179867387e-05,1739367206919.2495
-6.614150333916768e-05,1.210605933010811e-05,2.5758572519407608e-05,1.6325282103935024e-06,-4.1079165384871885e-05,1739367206919.7505
-6.827009201515466e-05,1.372923179587815e-05,2.6275383788743056e-05,4.313726094551384e-06,-4.170538522885181e-05,1739367206920.2517
-6.76845884299837e-05,1.4439838196267374e-05,2.524673072912265e-05,5.407660864875652e-06,-4.0639348299009725e-05,1739367206920.7522
-6.785609730286524e-05,1.371014423057204e-05,2.4797636797302403e-05,4.2325459617131855e-06,-4.042731234221719e-05,1739367206921.2532
-6.868200580356643e-05,1.2889428035123274e-05,2.52480385825038e-05,3.0337273528857622e-06,-4.276099934941158e-05,1739367206921.7542
-6.896306877024472e-05,1.1664578778436407e-05,2.5123195882770236e-05,2.167118054785533e-06,-4.3609961721813306e-05,1739367206922.2551
-6.82717000017874e-05,9.184228474623524e-06,2.4621385819045827e-05,2.465259967721068e-06,-4.303821697249077e-05,1739367206922.756
-6.60367586533539e-05,8.593580787419342e-06,2.381625927228015e-05,2.471674179105321e-06,-4.317132334108464e-05,1739367206923.2568
-6.398520054062828e-05,9.409690392203627e-06,2.3842008886276744e-05,1.3023073961448972e-06,-4.3960793846054e-05,1739367206923.7578
-6.427585321944207e-05,7.973507308633998e-06,2.4304448743350804e-05,3.5143153809258365e-07,-4.376375727588311e-05,1739367206924.2588
-6.752798799425364e-05,4.481485575524857e-06,2.469405080773868e-05,-8.679937195665843e-07,-4.3090989493066445e-05,1739367206924.7595
-6.998393655521795e-05,2.011043306993088e-06,2.3379496269626543e-05,-2.406584599157213e-06,-4.305516995373182e-05,1739367206925.2605
-6.805091834394261e-05,2.786385039144079e-06,2.182295429520309e-05,-3.681248472275911e-06,-4.343700493336655e-05,1739367206925.7617
-6.201215001055971e-05,4.7560974962834734e-06,2.1750245650764555e-05,-2.951122951344587e-06,-4.199008253635839e-05,1739367206926.2625
-5.851099558640272e-05,5.664713626174489e-06,2.1181107513257302e-05,-4.01227993052089e-07,-3.968381497543305e-05,1739367206926.7632
-5.731893907068297e-05,9.069869520317296e-06,2.0261199097149077e-05,7.564335078313889e-07,-3.862399898935109e-05,1739367206927.2642
-5.4027605074224994e-05,1.45237772812834e-05,2.21030004468048e-05,7.719642525216841e-08,-3.780420229304582e-05,1739367206927.7651
-4.963900209986605e-05,1.7662423488218337e-05,2.648761983436998e-05,-7.260638881234627e-07,-3.749961979337968e-05,1739367206928.266
-4.615282887243666e-05,1.725512629491277e-05,2.8448754164855927e-05,-5.330804242476006e-07,-3.852792360703461e-05,1739367206928.7668
-4.148986045038328e-05,1.7005682821036316e-05,2.7986345230601728e-05,7.643646995347808e-07,-4.116446143598296e-05,1739367206929.2678
-3.8818674511276186e-05,1.7217767890542746e-05,2.545900315453764e-05,-2.634007785218273e-07,-4.082699888385832e-05,1739367206929.7688
-3.621847645263188e-05,1.759259612299502e-05,2.604619112389628e-05,1.8086193449562411e-06,-3.822950020548888e-05,1739367206930.2695
-2.937626231869217e-05,1.926343429659028e-05,6.595164450118318e-05,5.3742419368063565e-06,-3.67196262232028e-05,1739367206930.7705
-1.9523920855135657e-05,1.9270901248091832e-05,0.0001738042628858,7.015682058408856e-06,-3.785442459047772e-05,1739367206931.2715
-1.2037999113090336e-05,1.758625148795545e-05,0.0002541996364016,6.538461093441583e-06,-4.1129365854430944e-05,1739367206931.7725
-5.909777883061906e-06,1.5620284102624282e-05,0.0002230075187981,6.052063326933421e-06,-4.3060292227892205e-05,1739367206932.2732
2.104396799040842e-06,1.3697966096515302e-05,0.0001225013256771,6.815450433350634e-06,-4.282260852050968e-05,1739367206932.7742
8.836858796712477e-06,1.2812365639547352e-05,1.3005322216486093e-05,8.04590672487393e-06,-4.346896821516566e-05,1739367206933.2751
7.950596227601636e-06,1.3600551937997809e-05,-7.355998968705535e-05,1.0529623978072776e-05,-4.446833918336779e-05,1739367206933.776
2.383533683314454e-06,1.3556295925809536e-05,-0.0001341193856205,9.81012544798432e-06,-4.498382259043865e-05,1739367206934.2769
3.187885226907383e-07,1.3029858564550524e-05,-0.0001573024637764,6.919998668308836e-06,-4.574459671857767e-05,1739367206934.7778
9.245317414752208e-06,1.4337149877974298e-05,-0.0001443047949578,3.565139877537149e-06,-4.5951961510581896e-05,1739367206935.2788
2.814774961734656e-05,1.606630212336313e-05,-0.0001115093982662,3.0331584639498037e-06,-4.6343069698195904e-05,1739367206935.7798
3.957506123697385e-05,1.739880462992005e-05,-7.823950727470219e-05,3.668635145004373e-06,-4.6636167098768055e-05,1739367206936.2805
1.6970276192296296e-05,1.934784449986182e-05,-5.307665196596645e-05,2.5986716991610592e-06,-4.6960914914961904e-05,1739367206936.7815
-4.623494896804914e-05,2.1632309653796256e-05,-3.56243435817305e-05,1.0483690857654435e-06,-4.781414463650435e-05,1739367206937.2825
-0.0001155383069999,2.2013286070432517e-05,-2.4197846869356e-05,1.196366838485119e-06,-4.913490920444019e-05,1739367206937.7834
-0.0001501927472418,2.056766788882669e-05,-1.5730454833828844e-05,1.9139665710099507e-06,-4.976685522706248e-05,1739367206938.2842
-0.0001400803448632,1.8604467186378315e-05,-9.05657452676678e-06,1.909160573632107e-06,-4.902901855530217e-05,1739367206938.7852
-9.944981866283342e-05,1.6768706700531766e-05,-1.8489675994715071e-06,1.3936389677837724e-06,-4.794021515408531e-05,1739367206939.286
-4.805434218724258e-05,1.526680171082262e-05,2.883958813981735e-06,1.6064715282482211e-06,-4.789601371157914e-05,1739367206939.787
-1.0639550055202562e-05,1.4341160749609116e-05,6.417863460228546e-06,1.2451292832338368e-06,-4.8343059461331e-05,1739367206940.2878
-7.777206519676838e-06,1.3899566511099692e-05,1.0273010957462247e-05,8.013938668227638e-07,-4.708799679065123e-05,1739367206940.7888
-4.224313306622207e-05,1.4174526768329088e-05,1.5386152881546877e-05,1.012681309475738e-06,-4.466723839868792e-05,1739367206941.2898
-9.397324902238324e-05,1.331112434854731e-05,1.9088261979050003e-05,-4.7032659722390246e-07,-4.401921614771709e-05,1739367206941.7908
-0.0001393826096318,1.2991357834835073e-05,2.1193822249188088e-05,-1.4784269524170668e-06,-4.46970880148001e-05,1739367206942.2915
-0.0001632731728022,1.4423455468204338e-05,2.2039188479539007e-05,-1.2212506135256262e-06,-4.6163288061507046e-05,1739367206942.7925
-0.000170938190422,1.4447904504777398e-05,2.0825360479648225e-05,3.180442718075938e-07,-4.732834713649936e-05,1739367206943.2937
-0.0001700548746157,1.4697733604407404e-05,1.8520773664931767e-05,8.093229553196579e-08,-4.7336845454992726e-05,1739367206943.7944
-0.0001654188090469,1.6418152881669812e-05,2.1678320990758948e-05,-3.2881655442906776e-07,-4.440705743036233e-05,1739367206944.2952
-0.0001590561878401,1.6945288734859787e-05,2.594951365608722e-05,-8.210983537537686e-07,-4.019968400825746e-05,1739367206944.796
-0.0001422132336301,1.54303324961802e-05,2.8517803002614528e-05,-2.5643189474067185e-06,-3.8576963561354205e-05,1739367206945.297
-0.0001094225081033,1.3669456166098826e-05,2.892644261009991e-05,-1.2353904139672522e-06,-3.891093001584522e-05,1739367206945.798
-5.2135113946860656e-05,1.2978105587535538e-05,3.145353548461571e-05,8.194734846256324e-07,-3.783475767704658e-05,1739367206946.2988
2.5164057660731487e-05,1.318233898928156e-05,4.3487336370162666e-05,8.805312177173619e-07,-3.4979464544449e-05,1739367206946.7998
9.273238538298756e-05,1.2215137758175842e-05,5.436240826384165e-05,1.911189428938087e-06,-3.449998257565312e-05,1739367206947.3008
0.0001140823587775,1.0210167602053843e-05,5.205922207096592e-05,2.339119873795425e-06,-3.4934426366817206e-05,1739367206947.8015
7.517445919802412e-05,8.264913958555553e-06,3.863960591843352e-05,9.010412327370432e-07,-3.564565486158244e-05,1739367206948.3025
4.26449742008117e-06,7.744359209027607e-06,2.4967328499769792e-05,-3.8518891187777626e-07,-3.727534567588009e-05,1739367206948.8037
-5.0196129450341687e-05,8.507557140546851e-06,1.65222318173619e-05,3.309027647446783e-07,-4.023344445158728e-05,1739367206949.3044
-5.513824362424202e-05,9.853332812781446e-06,1.2301311471674126e-05,1.5969233118084958e-06,-4.255279418430291e-05,1739367206949.8052
-2.6805038942256942e-05,1.0818703231052496e-05,1.0129034308192786e-05,3.440191449044505e-06,-4.2878447857219726e-05,1739367206950.3062
-1.877885551948566e-05,1.1008437468262857e-05,1.0892846148635726e-05,5.784064342151396e-06,-4.220521077513695e-05,1739367206950.8071
-6.22421212028712e-05,1.034368142427411e-05,1.3959130228613503e-05,6.1826035562262405e-06,-4.286865441827104e-05,1739367206951.308
-0.0001316998095717,9.922095159708988e-06,1.8089867808157575e-05,4.516942226473475e-06,-4.437178358784877e-05,1739367206951.8088
-0.0001811982074286,9.985756150854286e-06,2.239418427052442e-05,3.994934104412096e-06,-4.281079600332305e-05,1739367206952.3098
-0.0001908273989101,1.065254309651209e-05,2.5200863092322837e-05,5.378344212658703e-06,-3.936905341106467e-05,1739367206952.8108
-0.0001737782877171,1.1449968951637857e-05,2.7302763555780984e-05,6.206567832123255e-06,-3.825414751190692e-05,1739367206953.3118
-0.0001541638193884,9.994342690333724e-06,2.8718304747599177e-05,5.965758646198083e-06,-3.9790287701180205e-05,1739367206953.8125
-0.0001391676923958,7.870783520047553e-06,2.9528515369747765e-05,4.806116066902177e-06,-4.116823765798472e-05,1739367206954.3137
-0.0001200731567223,7.589447250211378e-06,3.17201302095782e-05,3.668099225251353e-06,-4.243803778081201e-05,1739367206954.8145
-9.125758515438064e-05,7.77173863752978e-06,3.1752922950545326e-05,2.109362867486197e-06,-4.212324711261317e-05,1739367206955.3154
-6.073111217119731e-05,7.02851366440882e-06,2.911082628997974e-05,6.80446206047236e-08,-4.18511190218851e-05,1739367206955.8162
-3.957911758334376e-05,7.0675064307579305e-06,2.897825288528111e-05,8.805383799881383e-07,-4.236334643792361e-05,1739367206956.3171
-3.490371091174893e-05,7.035190719761886e-06,3.2841970096342266e-05,3.741822638403392e-06,-4.253556107869372e-05,1739367206956.818
-4.604482091963291e-05,6.784298420825508e-06,3.46759261447005e-05,4.210907718515955e-06,-4.436987364897504e-05,1739367206957.319
-6.488661165349185e-05,6.934207249287283e-06,4.295164399081841e-05,3.929675585823134e-06,-4.428389001986943e-05,1739367206957.8198
-8.389991126023233e-05,7.120355803635903e-06,7.052499131532386e-05,2.0191480416542618e-06,-4.4272066588746384e-05,1739367206958.3208
-9.64135251706466e-05,6.993304396019084e-06,9.860241698333994e-05,-1.089709371626668e-06,-4.489329148782417e-05,1739367206958.8218
-9.937569848261774e-05,6.625123205594719e-06,0.0001011994900181,-2.946101176348748e-06,-4.584592170431279e-05,1739367206959.3228
-9.436532855033876e-05,7.190908490883885e-06,7.668336183996871e-05,-2.020572310357238e-06,-4.675529635278508e-05,1739367206959.8235
-7.921560609247535e-05,8.718528079043608e-06,4.2554878746159375e-05,-1.6699027582944836e-06,-4.583355621434748e-05,1739367206960.3245
-5.206344576436095e-05,9.625779057387264e-06,1.5547488146694377e-05,-2.104187615259434e-06,-4.781403549714014e-05,1739367206960.8254
-1.8024396922555752e-05,9.952047548722476e-06,-5.295596565701999e-07,-3.4951831366925035e-06,-5.035498907091096e-05,1739367206961.3264
5.750682703364873e-06,9.31093563849572e-06,-7.6835149229737e-06,-5.533077910513384e-06,-5.272559428703971e-05,1739367206961.8271
1.586098369443789e-05,9.09047321329126e-06,-7.98642577137798e-06,-6.682470484520309e-06,-5.264702485874295e-05,1739367206962.328
2.553287959017325e-05,9.051901542989071e-06,-4.505794848341793e-08,-6.783009212085744e-06,-5.172019518795423e-05,1739367206962.829
4.425134466146119e-05,8.46782040753169e-06,1.4780811397940852e-05,-5.426705683930777e-06,-5.0476883188821375e-05,1739367206963.33
6.319878593785688e-05,7.740252840449102e-06,2.294976184202824e-05,-1.6707613212929573e-06,-4.76779205200728e-05,1739367206963.8308
5.733294528909028e-05,7.69373400544282e-06,1.8022345102508552e-05,4.354899829195347e-06,-4.476933099795133e-05,1739367206964.3318
1.0744328392320313e-05,8.222697033488657e-06,8.514639375789557e-06,8.075841833488084e-06,-4.417839227244258e-05,1739367206964.8328
-5.576610783464275e-05,9.402651812706608e-06,4.386463388073025e-06,8.268573765235487e-06,-4.510048165684566e-05,1739367206965.3335
-0.0001013512446661,1.0237006790703164e-05,4.54443579656072e-06,6.065718025638489e-06,-4.42887976532802e-05,1739367206965.8345
-0.0001103063914342,9.576000593369828e-06,4.319143499742495e-06,4.713627276942134e-06,-4.337100472184829e-05,1739367206966.3354
-9.62651101872325e-05,9.105693607125431e-06,1.6704887002561009e-06,3.165525413351133e-06,-4.383339910418727e-05,1739367206966.8364
-7.387061486952007e-05,8.574842468078714e-06,-1.5637375554433677e-06,1.409774654348439e-06,-4.6110537368804216e-05,1739367206967.3372
-5.176599370315671e-05,6.584131369891111e-06,-1.2395744306559209e-06,2.319455234101042e-06,-4.7431789425900206e-05,1739367206967.838
-3.3662636269582435e-05,4.461900061869528e-06,1.6877629605005495e-06,3.517688355714199e-06,-4.804190029972233e-05,1739367206968.339
-1.7423306417185813e-05,5.211951247474644e-06,3.950549398723524e-06,1.6315312905135215e-06,-4.863825597567484e-05,1739367206968.84
-2.792083705571713e-06,7.646988706255797e-06,6.383224445016822e-06,-1.43517070227972e-07,-4.865267692366615e-05,1739367206969.3408
1.642780080146622e-05,1.0280706192133948e-05,1.105376850318862e-05,7.498212539758242e-07,-4.775391789735295e-05,1739367206969.8418
3.5944729461334646e-05,1.1661986718536356e-05,1.3154769476386718e-05,6.965343800402479e-06,-4.501908551901579e-05,1739367206970.3428
4.4740678276866674e-05,1.1823984095826743e-05,1.1935535439988598e-05,1.057741519616684e-05,-4.322185850469396e-05,1739367206970.8438
4.624424036592245e-05,1.3548145034292249e-05,1.2702327694569249e-05,8.038490705075674e-06,-4.2363190004834905e-05,1739367206971.3445
4.484074815991335e-05,1.4646736417489592e-05,1.4090103832131716e-05,5.603654244623613e-06,-3.993501013610512e-05,1739367206971.8457
2.9856002583983358e-05,1.5202933354885316e-05,1.2286292076169048e-05,4.853062819165643e-06,-3.83718179364223e-05,1739367206972.3464
-1.3083354133414105e-06,1.652693208598066e-05,1.0232895874651147e-05,4.716967850981746e-06,-3.52394454239402e-05,1739367206972.8474
-3.636471956269816e-05,1.6718793631298468e-05,1.0132363968295977e-05,3.748361223188113e-06,-3.295204805908725e-05,1739367206973.348
-6.586113886442035e-05,1.7298962120548822e-05,9.63678667176282e-06,4.63601509181899e-06,-3.303126504761167e-05,1739367206973.849
-8.760787022765726e-05,1.6783866158220917e-05,9.736955689731984e-06,5.845514806424035e-06,-3.363401992828585e-05,1739367206974.35
-0.0001029509730869,1.5909447029116563e-05,1.363501087325858e-05,6.044076144462451e-06,-3.5282217140775174e-05,1739367206974.851
-0.0001112203899538,1.5903849998721853e-05,1.8357630324317142e-05,6.7368873715167865e-06,-3.68415676348377e-05,1739367206975.3518
-0.0001054957028827,1.7744700016919523e-05,2.020015745074488e-05,9.166404197458178e-06,-3.793539872276597e-05,1739367206975.8528
-8.730985427973792e-05,1.905472163343802e-05,1.879655246739276e-05,9.745274837769102e-06,-3.766767622437328e-05,1739367206976.3538
-6.424200546462089e-05,1.9233379134675488e-05,1.811594484024681e-05,7.877913049014751e-06,-3.597823160816915e-05,1739367206976.8547
-4.4290951336734e-05,1.8751732568489388e-05,1.8999837266164832e-05,5.845886335009709e-06,-3.52629940607585e-05,1739367206977.3557
-3.001898221555166e-05,1.8835569790098816e-05,1.97893641598057e-05,4.008826635981677e-06,-3.524350540828891e-05,1739367206977.8564
-2.1375490177888423e-05,1.85408989636926e-05,1.9362625607755035e-05,2.198819629484205e-06,-3.571270644897595e-05,1739367206978.3574
-1.8145108697353866e-05,1.8163176719099283e-05,1.8693990568863228e-05,1.8357249018663424e-06,-3.740439933608286e-05,1739367206978.8584
-1.9440891264821403e-05,1.791719114407897e-05,1.8140248357667588e-05,3.139589352940675e-06,-3.956174259656109e-05,1739367206979.3591
-2.336783472856041e-05,1.7326830857200548e-05,1.5137572518142406e-05,4.7742332753841765e-06,-4.029549381812103e-05,1739367206979.86
-2.501028757251333e-05,1.680857894825749e-05,1.2618002074304968e-05,4.3566469685174525e-06,-3.964219649787992e-05,1739367206980.361
-2.0872539607807997e-05,1.674911800364498e-05,1.5543802874162793e-05,2.116363248205744e-06,-4.0466562495566905e-05,1739367206980.862
-1.2974487617611883e-05,1.6618922018096782e-05,2.9616247047670186e-05,1.530667873339553e-06,-4.015850572613999e-05,1739367206981.3628
-5.828490884596249e-06,1.559886550239753e-05,5.267219603410922e-05,3.607045982789714e-06,-3.713764817803167e-05,1739367206981.8638
-1.1751413921956555e-06,1.599863389856182e-05,6.404993473552167e-05,5.529834197659511e-06,-3.646746699814685e-05,1739367206982.3647
2.208863634223235e-06,1.6108640920720063e-05,5.294179209158756e-05,3.181331976520596e-06,-3.732831464731135e-05,1739367206982.8655
8.704496394784655e-06,1.486737255618209e-05,3.223311068722978e-05,1.634805130379391e-06,-3.689165168907493e-05,1739367206983.3665
2.2870606699143536e-05,1.2922700989292936e-05,1.1882463695656044e-05,-5.798103757115314e-07,-3.5523153201211244e-05,1739367206983.8674
4.3371564970584586e-05,1.4334877960209267e-05,-3.564891585483565e-06,-6.347436737996759e-06,-3.612026921473444e-05,1739367206984.3684
6.219170609256253e-05,1.5543089830316603e-05,-1.2635308848985003e-05,-9.55101495492272e-06,-3.693893449963071e-05,1739367206984.8691
7.796645513735712e-05,1.4592455045203678e-05,-1.3566464076575356e-05,-4.081559382029809e-06,-3.630239370977506e-05,1739367206985.37
9.669655264588072e-05,1.3144129297870675e-05,-8.36696654005209e-06,6.621698958042543e-06,-3.804943844443187e-05,1739367206985.871
0.0001184327848022,1.3181844224163797e-05,-4.24027894041501e-06,1.2969598174095154e-05,-3.892331369570456e-05,1739367206986.372
0.000122571029351,1.347861598333111e-05,-1.2809108511646627e-06,1.435657759429887e-05,-3.937873771064915e-05,1739367206986.8728
9.93925568764098e-05,1.341502047580434e-05,2.143681740562897e-06,1.3151095117791556e-05,-3.9204216591315344e-05,1739367206987.3738
5.551161666517146e-05,1.3413631677394733e-05,6.86790190229658e-06,1.0300137546437329e-05,-3.851509973173961e-05,1739367206987.8748
1.7964877770282328e-05,1.4991976968303788e-05,1.116497878683731e-05,5.555176358029712e-06,-3.785167427849956e-05,1739367206988.3755
6.578333795914659e-06,1.6882830095710233e-05,1.3279681297717616e-05,-1.827364258133457e-06,-3.979465327574872e-05,1739367206988.8765
2.8723376090056263e-05,1.6441701518488117e-05,1.3666423001268411e-05,-9.1948868430336e-06,-4.23632882302627e-05,1739367206989.3774
7.007959356997162e-05,1.4123936125542969e-05,1.4291324987425467e-05,-1.2441073522495572e-05,-4.327437272877432e-05,1739367206989.8784
9.616340685170144e-05,1.1892955626535697e-05,1.763562067935709e-05,-1.2109760064049624e-05,-4.3644198740366846e-05,1739367206990.3794
7.677932444494218e-05,9.482794666837435e-06,2.1110607121954672e-05,-9.54881943471264e-06,-4.433757203514688e-05,1739367206990.88
5.688604687748011e-06,7.780636224197224e-06,2.3425522158504464e-05,-3.395763314983924e-06,-4.592030381900258e-05,1739367206991.381
-9.01932071428746e-05,7.088401616783813e-06,2.428716834401712e-05,2.246266149086296e-06,-4.886108581558801e-05,1739367206991.882
-0.0001748027134453,6.775808742531808e-06,2.619788392621558e-05,3.3070423341996502e-06,-5.314062582328916e-05,1739367206992.383
-0.0002285356604261,7.5081757131556515e-06,2.8808750357711688e-05,3.0514429454342462e-06,-5.531408896786161e-05,1739367206992.8838
-0.0002596268604975,6.920430678292178e-06,2.9717417419306003e-05,5.133204467711039e-06,-5.472066914080642e-05,1739367206993.3848
-0.000280367443338,5.805676210002275e-06,2.88024984911317e-05,7.187033588706981e-06,-5.423467155196704e-05,1739367206993.8855
-0.0002867247676476,3.607275857575587e-06,2.653259616636205e-05,7.67748224461684e-06,-5.564427920035087e-05,1739367206994.3867
-0.0002629574737511,2.331948735445621e-06,2.310472154931631e-05,8.398901627515443e-06,-5.66151284147054e-05,1739367206994.8877
-0.0002187643112847,2.778254156510229e-06,2.1025995010859333e-05,1.1415110748203006e-05,-5.666680590366013e-05,1739367206995.3884
-0.0001809141103876,5.554411472985521e-06,2.065013177343644e-05,1.2516443348431494e-05,-5.524956941371784e-05,1739367206995.8894
-0.0001603104319656,7.834442840248812e-06,2.1123114493093453e-05,1.039687867887551e-05,-5.3437714086612687e-05,1739367206996.3904
-0.0001515631593065,8.572787919547409e-06,2.335776480322238e-05,1.0410326467535924e-05,-5.145240720594302e-05,1739367206996.891
-0.0001533032191218,7.986489436007105e-06,2.3903137844172303e-05,9.83406698651379e-06,-4.783792974194512e-05,1739367206997.392
-0.0001507601118646,8.614699254394509e-06,2.377993951085955e-05,5.222630079515511e-06,-4.3589934648480266e-05,1739367206997.893
-0.0001384020142722,1.2571394108817913e-05,2.281365414091852e-05,2.2436561266658828e-06,-4.293964593671262e-05,1739367206998.394
-0.000121154669614,1.78479021997191e-05,2.2321948563330807e-05,5.354206109586812e-07,-4.379044912639074e-05,1739367206998.8948
-0.0001027995458571,2.2724972950527444e-05,2.33636237680912e-05,7.031496807030635e-07,-4.401772457640618e-05,1739367206999.3958
-8.764931408222765e-05,2.3999080440262333e-05,2.464229692122899e-05,4.061931122123497e-06,-4.347997673903592e-05,1739367206999.8967
-8.104661537799984e-05,2.395286901446525e-05,2.531542668293696e-05,4.15095701100654e-06,-4.372012699604966e-05,1739367207000.3977
-8.522399730281904e-05,2.1909307179157626e-05,2.42182650254108e-05,4.518951755017042e-06,-4.447753963177093e-05,1739367207000.8984
-9.496531856711954e-05,1.8424865629640408e-05,2.384552863077261e-05,2.845604512913269e-06,-4.481599535210989e-05,1739367207001.3994
-0.0001024662778945,1.5580246326862834e-05,2.3068239897838797e-05,-3.961565198551398e-06,-4.426682062330656e-05,1739367207001.9004
-0.0001046043762471,1.361835893476382e-05,2.1716086848755367e-05,-1.30176376842428e-05,-4.373033152660355e-05,1739367207002.4011
-9.805605077417567e-05,1.178669754153816e-05,2.031778058153577e-05,-1.779170816007536e-05,-4.37246635556221e-05,1739367207002.902
-8.036774670472369e-05,9.358459465147462e-06,1.9583832909120247e-05,-1.6605728887952864e-05,-4.258082481101155e-05,1739367207003.403
-5.457455335999839e-05,7.870324225223158e-06,1.985140625038184e-05,-1.018119746731827e-05,-4.203106072964147e-05,1739367207003.904
-2.8966596801183183e-05,6.992272119532572e-06,2.031724216067232e-05,-2.6893453650700394e-06,-4.135019116802141e-05,1739367207004.4048
-1.0765465049189515e-05,7.099367394403089e-06,2.1676287360605784e-05,3.5951336485595675e-06,-3.9925635064719245e-05,1739367207004.9058
1.572816472616978e-06,7.709691089985427e-06,2.407926331216004e-05,8.216545211325865e-06,-3.859639764414169e-05,1739367207005.4067
1.272281133424258e-05,1.0301894690201152e-05,2.6641662770998664e-05,1.0689325790735891e-05,-3.8611389754805714e-05,1739367207005.9077
2.598790524643846e-05,1.3326556654646993e-05,2.486895937181544e-05,1.1738361536117736e-05,-3.841040961560793e-05,1739367207006.4084
4.1268114728154615e-05,1.4654448023065925e-05,2.1049187125754543e-05,1.0573240615485702e-05,-3.729183663381264e-05,1739367207006.9094
5.875531132915057e-05,1.517385862825904e-05,1.839147626014892e-05,8.524315489921719e-06,-3.54677285940852e-05,1739367207007.4104
7.323790487134829e-05,1.5536030332441442e-05,1.7594516975805163e-05,8.409003385168035e-06,-3.5241624573245645e-05,1739367207007.9114
8.225284545915201e-05,1.4757129974896088e-05,1.8741195162874646e-05,1.2633261576411314e-05,-3.489879600238055e-05,1739367207008.412
8.623449684819207e-05,1.5763096598675475e-05,1.998139669012744e-05,1.5021524632174987e-05,-3.534163988661021e-05,1739367207008.913
8.339642954524606e-05,1.7447033314965665e-05,1.801488542696461e-05,1.5061323210829867e-05,-3.785966327995993e-05,1739367207009.414
6.871826917631552e-05,1.7114498405135237e-05,1.5616900782333687e-05,1.375462943542516e-05,-3.791549170273356e-05,1739367207009.915
4.894339508609846e-05,1.681821777310688e-05,1.528594111732673e-05,1.253037862625206e-05,-3.669937723316252e-05,1739367207010.4158
2.4141627363860607e-05,2.0198003767291084e-05,1.49598690768471e-05,1.059953046933515e-05,-3.5927492717746645e-05,1739367207010.9167
-1.7197939996549394e-06,2.603864595585037e-05,1.68827100424096e-05,7.481981356249889e-06,-3.3697986509650946e-05,1739367207011.4175
-2.319974009878933e-05,2.8580818252521567e-05,2.0446332200663164e-05,2.8148024284746498e-06,-3.1879764719633386e-05,1739367207011.9187
-3.944910713471472e-05,2.715666596486699e-05,2.1441763237817213e-05,-4.163792709732661e-06,-3.2503914553672075e-05,1739367207012.4194
-4.533399987849407e-05,2.2326845282805152e-05,1.993251680687536e-05,-1.0568543075351045e-05,-3.376878521521576e-05,1739367207012.9204
-4.0572049329057336e-05,1.578992851136718e-05,1.988440635614097e-05,-1.4205412298906596e-05,-3.602525612222962e-05,1739367207013.4214
-2.724314072111156e-05,9.38436460273806e-06,2.1539064618991688e-05,-1.4357276086229833e-05,-3.776444646064192e-05,1739367207013.9224
-4.5419508865052194e-07,4.022039775009034e-06,2.3544691430288367e-05,-1.1222960893064736e-05,-4.0659611840965226e-05,1739367207014.423
4.0431899833492935e-05,7.742142429378873e-07,2.476088047842495e-05,-7.408938472508453e-06,-4.374102354631759e-05,1739367207014.924
7.015696610324085e-05,6.636259541892288e-08,2.621539715619292e-05,-2.4927967388066463e-06,-4.538750363280997e-05,1739367207015.425
5.756124301115051e-05,-8.070500143730897e-07,2.6824563974514604e-05,1.1739228966689552e-06,-4.7509707655990496e-05,1739367207015.926
-8.957581485447008e-07,-1.450717718398664e-06,2.9620723580592312e-05,3.5415635011304403e-06,-4.969475048710592e-05,1739367207016.4268
-6.883376772748306e-05,-1.2762390042553309e-06,3.703792390297167e-05,7.45400848245481e-06,-5.104431693325751e-05,1739367207016.9275
-0.0001081208829418,1.7935782352651586e-06,4.411321060615592e-05,3.1673731427872553e-05,-5.0438182370271534e-05,1739367207017.4287
-0.0001105036353692,6.7990299612574745e-06,4.171264299657196e-05,8.427751890849322e-05,-4.855958468397148e-05,1739367207017.9297
-9.365515143144876e-05,1.2386422895360738e-05,3.049500082852319e-05,0.0001282286393688,-4.681626887759194e-05,1739367207018.4304
-8.166582847479731e-05,1.8278949937666766e-05,2.019470412051305e-05,0.0001272794761462,-4.521447408478707e-05,1739367207018.9314
-8.746751700527966e-05,2.5289093173341826e-05,1.5138894013944082e-05,8.167645137291402e-05,-4.358009391580708e-05,1739367207019.4324
-0.0001011838321574,3.212900264770724e-05,1.1593699127843138e-05,1.916986730066128e-05,-4.309097130317241e-05,1739367207019.933
-0.0001050237042363,3.721767643583007e-05,8.64423236635048e-06,-3.403847222216427e-05,-4.234908192302101e-05,1739367207020.434
-9.803506691241636e-05,3.955774081987329e-05,8.868887562130112e-06,-6.302401016000658e-05,-4.1183429857483134e-05,1739367207020.935
-9.071550448425114e-05,3.719099913723767e-05,1.0476765964995138e-05,-6.663493695668876e-05,-4.0633793105371296e-05,1739367207021.436
-9.031451918417588e-05,3.0840743420412764e-05,1.1586447726585902e-05,-5.710648838430643e-05,-4.10333122999873e-05,1739367207021.9368
-8.967669418780133e-05,2.2495405573863536e-05,1.048774538503494e-05,-4.8613379476591945e-05,-4.356934005045332e-05,1739367207022.4375
-8.074440847849473e-05,1.829532084229868e-05,1.059640089806635e-05,-4.472509317565709e-05,-4.71832427137997e-05,1739367207022.9387
-7.130586163839325e-05,1.682816400716547e-05,1.3133509128238074e-05,-4.483720476855524e-05,-4.798349254997447e-05,1739367207023.4397
-7.043162622721866e-05,1.4573341104551218e-05,1.7425616533728316e-05,-4.417747550178319e-05,-4.61519266536925e-05,1739367207023.9404
-7.518750499002635e-05,1.2586252523760775e-05,1.925066317198798e-05,-3.892035238095559e-05,-4.585364513332024e-05,1739367207024.4414
-8.053163764998317e-05,1.0628967174852733e-05,1.9592505850596357e-05,-3.4127395338146016e-05,-4.4446591346059e-05,1739367207024.9424
-8.773942681727931e-05,8.157398951880168e-06,2.0490942915785126e-05,-3.280555392848328e-05,-4.3655109038809314e-05,1739367207025.4434
-9.55599098233506e-05,6.534233762067743e-06,2.169760045944713e-05,-3.399563502171077e-05,-4.4752698158845305e-05,1739367207025.944
-0.0001032314394251,6.386271707015112e-06,3.482953616185114e-05,-3.3614425774430856e-05,-4.547295247903094e-05,1739367207026.445
-0.0001063921008608,7.314620688703144e-06,5.784634413430467e-05,-2.9510300009860657e-05,-4.62207717646379e-05,1739367207026.946
-9.145055810222402e-05,7.811799150658771e-06,6.443256279453635e-05,-2.759904418780934e-05,-4.580978929880075e-05,1739367207027.447
-5.4125859605846927e-05,8.077406164375134e-06,4.659933256334625e-05,-2.673220296856016e-05,-4.485182216740213e-05,1739367207027.9478
-1.5763409464852884e-05,8.47855699248612e-06,2.1182011550990865e-05,-2.38706106756581e-05,-4.094159885426052e-05,1739367207028.4487
-7.264465693879174e-06,8.711248483450618e-06,7.795867418280977e-07,-1.7598842532606795e-05,-3.8079018850112334e-05,1739367207028.9497
-3.640817885752767e-05,9.312244401371572e-06,-9.459946340939496e-06,-1.103521753975656e-05,-3.79772754968144e-05,1739367207029.4507
-8.61042644828558e-05,1.0380845196777956e-05,-5.2528166634147055e-06,-6.344418125081575e-06,-4.032746073789895e-05,1739367207029.9514
-0.0001315733825322,1.2262868949619588e-05,1.1364604688424151e-05,-2.384468871241552e-06,-4.2009298340417445e-05,1739367207030.4524
-0.0001540231169201,1.3065677194390446e-05,2.543274240451865e-05,1.398516815243056e-06,-4.101355443708599e-05,1739367207030.9534
-0.0001516538177384,1.2828779290430248e-05,2.3671213057241403e-05,4.831986643694108e-06,-3.86395440727938e-05,1739367207031.4543
-0.0001364056952297,1.1153496416227426e-05,9.104966011364011e-06,1.574077941768337e-05,-3.707822907017544e-05,1739367207031.955
-0.0001180638428195,8.666607755003497e-06,-5.580782726610778e-06,5.2881066949339584e-05,-3.8397971366066486e-05,1739367207032.456
-9.870095527730882e-05,7.715750143688638e-06,-1.3577374375017826e-05,0.0001095772968255,-3.986050069215708e-05,1739367207032.957
-7.845550862839445e-05,8.101281309791375e-06,-1.579406307428144e-05,0.000142544551636,-4.221132985549048e-05,1739367207033.458
-5.996010440867394e-05,9.678607966634443e-06,-1.3425505130726378e-05,0.0001190244511235,-4.550590892904438e-05,1739367207033.9587
-4.408137465361506e-05,1.1177139640494715e-05,-8.994939889817033e-06,5.270444671623409e-05,-4.840958717977628e-05,1739367207034.4597
-2.842153116944246e-05,9.617122486815788e-06,-5.113407951284898e-06,-1.772648647602182e-05,-4.7640252887504175e-05,1739367207034.9607
-1.5644063751096837e-05,7.87613771535689e-06,-1.2907007658213845e-06,-5.942432835581712e-05,-4.521692608250305e-05,1739367207035.4617
-8.158821401593741e-06,8.561272807128262e-06,2.2142062334751245e-06,-6.739806121913716e-05,-4.4004922528984025e-05,1739367207035.9624
-3.306315420559258e-06,5.805392447655322e-06,4.873571469943272e-06,-5.716558007407002e-05,-4.408409586176276e-05,1739367207036.4634
2.0313505046942737e-06,2.2125486793811437e-06,5.17379294251441e-06,-4.87495526613202e-05,-4.522076415014453e-05,1739367207036.9644
5.735254035243997e-06,-3.21869890740345e-08,4.918684680887964e-06,-4.674178853747435e-05,-4.60295777884312e-05,1739367207037.465
1.670025540079223e-06,-3.1736803975945804e-06,6.281297828536481e-06,-4.6019737055758014e-05,-4.681783320847899e-05,1739367207037.966
-5.091205366625218e-06,-8.218150469474494e-06,7.015984920144547e-06,-4.209530015941709e-05,-4.853301288676448e-05,1739367207038.467
-6.51208665658487e-06,-1.249116576218512e-05,8.381131920032203e-06,-3.652800660347566e-05,-4.8737656470621005e-05,1739367207038.968
-3.1573304113408085e-06,-1.348467412753962e-05,1.1197535968676677e-05,-3.630507490015589e-05,-4.760193405672908e-05,1739367207039.4688
-6.366299771798367e-07,-1.2901836271339562e-05,1.5553105185972527e-05,-3.676163396448828e-05,-4.7255522076739e-05,1739367207039.9695
-3.791753897530725e-07,-1.1284806532785296e-05,2.0131321434746496e-05,-3.176741665811278e-05,-4.833246930502355e-05,1739367207040.4707
5.967436322862341e-07,-7.564293355244445e-06,2.3892183889984157e-05,-2.325468994968105e-05,-4.8724719817982987e-05,1739367207040.9717
1.907664682221366e-06,-6.503711915684107e-07,2.707852763705887e-05,-1.253625850949902e-05,-4.693039954872802e-05,1739367207041.4724
3.1900412977847736e-06,6.012687663314864e-06,3.0266159228631292e-05,-2.330367578906589e-06,-4.346381683717482e-05,1739367207041.9734
4.487876140046865e-06,1.047456134983804e-05,3.610011481214315e-05,3.3753824482118944e-06,-4.072030060342513e-05,1739367207042.4744
4.696171799878357e-06,1.4774870578548873e-05,4.607514347299002e-05,5.469981715577887e-06,-4.104760228074156e-05,1739367207042.975
3.6475244087341703e-06,2.087970460706856e-05,5.430906458059326e-05,5.664998752763495e-06,-4.1652878280729055e-05,1739367207043.476
1.7576210211700527e-06,2.550796307332348e-05,5.2741350373253226e-05,6.535954980790848e-06,-3.998507600044832e-05,1739367207043.977
-5.790961381535453e-07,2.8361318982206285e-05,4.4953932956559584e-05,8.70909479999682e-06,-3.786958768614568e-05,1739367207044.478
-5.431700742519752e-07,2.89806575892726e-05,4.16358197981026e-05,1.2196010175102856e-05,-3.6934572563041e-05,1739367207044.979
9.39386723075586e-07,2.7671143470797688e-05,6.567056698258966e-05,1.4839934920019004e-05,-3.729722084244713e-05,1739367207045.4795
-3.383528905942512e-07,2.343376399949193e-05,0.0001145410860772,1.573010922584217e-05,-3.804107109317556e-05,1739367207045.9807
-3.989986453234451e-06,1.9017439626622945e-05,0.0001382552291033,2.020394276769366e-05,-3.794193617068231e-05,1739367207046.4817
-7.073156211845344e-06,1.7973798094317317e-05,0.00010711493087,3.0015220545465127e-05,-3.674670733744279e-05,1739367207046.983
-9.654877430875786e-06,2.016036887653172e-05,4.8577629058854654e-05,3.790198752540164e-05,-3.5305631172377616e-05,1739367207047.4834
-1.2098003935534509e-05,2.2000322132953443e-05,-4.816374712390825e-06,4.230713238939643e-05,-3.557577292667702e-05,1739367207047.9844
-1.4204972103470936e-05,2.06442618946312e-05,-4.3336454837117344e-05,4.589690070133656e-05,-3.715316779562272e-05,1739367207048.4854
-1.5961486496962607e-05,1.8486018234398216e-05,-6.83977414155379e-05,4.309300493332557e-05,-3.886441118083894e-05,1739367207048.9863
-1.4088346688367892e-05,1.6783285900601186e-05,-7.842925697332248e-05,3.460213338257745e-05,-4.056038960698061e-05,1739367207049.487
-8.645517482364085e-06,1.533106478746049e-05,-6.966550427023321e-05,2.4541259335819632e-05,-4.147398067289032e-05,1739367207049.988
-1.452383116884448e-06,1.4517469026031904e-05,-4.583301779348403e-05,1.631501072552055e-05,-4.238759720465168e-05,1739367207050.489
1.0287375516782047e-05,1.8108841686625965e-05,1.6271245840471238e-05,1.0942362678179052e-05,-4.22200646426063e-05,1739367207050.99
3.276268398622051e-05,2.0486893845372837e-05,0.0001715212711133,7.087357971613528e-06,-4.002177593065426e-05,1739367207051.4907
7.661671406822279e-05,1.9642066035885364e-05,0.0002934275544248,4.795613222086104e-06,-3.932978506782092e-05,1739367207051.9917
0.0001407583476975,1.8563570847618397e-05,0.0002592653036117,3.0435662665695418e-06,-3.81954996555578e-05,1739367207052.493
0.0001982782705454,1.9472703570500016e-05,0.0001705221802694,1.5572237543892695e-06,-3.857392584905028e-05,1739367207052.9937
0.0002165226032957,2.189862061641179e-05,0.0001239861303474,-2.6483139663469046e-06,-3.889774234266952e-05,1739367207053.4944
0.0001724017347441,2.3535216314485297e-05,8.806747064227238e-05,-7.177400675573153e-06,-3.934370033675805e-05,1739367207053.9954
6.350871990434825e-05,2.3844037059461695e-05,-2.6899076601694105e-06,-1.0333154023101088e-05,-4.065703978994861e-05,1739367207054.4963
-7.895171438576654e-05,2.3611379219801165e-05,-9.38167577260174e-05,-1.1982292562606744e-05,-4.08712585340254e-05,1739367207054.9973
-0.0002053765492746,2.4503131498931907e-05,-0.000142360193422,-1.0413754353066906e-05,-4.187017475487664e-05,1739367207055.498
-0.0002708414685912,2.4868788386811506e-05,-0.0001412394485669,-5.474428235174855e-06,-4.185271609458141e-05,1739367207055.999
-0.0002663698105607,2.3341459382209e-05,-0.000124155631056,5.094536845717812e-07,-4.2044750443892553e-05,1739367207056.5
-0.0002188262878917,2.1143743651919067e-05,-0.0001124023256124,3.2446509976580278e-06,-4.054231976624578e-05,1739367207057.001
-0.0001698372943792,1.9126669940305877e-05,-0.0001091836384148,1.0683982054615626e-06,-4.0076069126371294e-05,1739367207057.5017
-0.0001514484320068,1.848491228884086e-05,-0.0001116098137572,-1.5998797380234464e-06,-4.335167977842502e-05,1739367207058.0027
-0.0001661821152083,1.8453274606144987e-05,-0.0001104680777643,-3.967220720824116e-07,-4.779395385412499e-05,1739367207058.5037
-0.0001962000824278,1.769804657669738e-05,-0.0001022290380205,5.8208070186083205e-06,-4.950537186232396e-05,1739367207059.0044
-0.0002198510046582,1.5573659766232595e-05,-8.465446444461122e-05,1.3243785360828042e-05,-4.823813651455566e-05,1739367207059.5054
-0.0002279938926221,1.3586854038294405e-05,-6.846729957032949e-05,1.5969910236890428e-05,-4.778844231623225e-05,1739367207060.0063
-0.0002305099478689,1.3386889804678503e-05,-5.0457718316465616e-05,1.4457687029789668e-05,-4.8582645831629634e-05,1739367207060.507
-0.0002335787430638,1.411438461218495e-05,-2.80120311799692e-05,1.1951499800488818e-05,-4.8762634833110496e-05,1739367207061.008
-0.0002207621437264,1.4033403203939088e-05,-1.5978592955434578e-06,1.08079320852994e-05,-4.889518459094688e-05,1739367207061.509
-0.0001839534961618,1.1762225767597556e-05,8.912963494367432e-06,1.1681446267175488e-05,-5.024431811762042e-05,1739367207062.01
-0.0001432374410796,7.90636840974912e-06,5.7906549955077935e-06,1.200290171254892e-05,-5.158882413525134e-05,1739367207062.511
-0.0001165110661531,3.403883056307677e-06,-4.813460236618994e-06,9.199203304888217e-06,-5.292506830301136e-05,1739367207063.0117
-0.0001016221576719,-9.666099032301645e-08,-1.2210000022605527e-05,8.595920007792301e-06,-5.10330282850191e-05,1739367207063.5127
-8.908550080377609e-05,-4.58610912801305e-07,-1.3863083950127477e-05,1.1459332199592607e-05,-5.014186899643392e-05,1739367207064.0137
-7.451423880411312e-05,1.0185548262597877e-06,-4.326401722209994e-06,1.1997821275144815e-05,-5.146556213730946e-05,1739367207064.5146
-6.289832526817918e-05,9.966677225747844e-07,7.768039722577669e-06,1.096534924727166e-05,-5.1281087507959455e-05,1739367207065.0154
-5.36950865352992e-05,-1.7488655430497602e-06,1.6784222680144012e-05,1.1999796697637066e-05,-5.14226958330255e-05,1739367207065.5164
-4.262786023900844e-05,-4.330271167418687e-06,2.139202297257725e-05,1.2390870324452408e-05,-5.0786518841050565e-05,1739367207066.017
-3.062520772800781e-05,-3.228830792068038e-06,2.8100868803448972e-05,1.2417042853485327e-05,-4.962952516507357e-05,1739367207066.5183
-2.123006015608553e-05,-1.0304593160981312e-06,3.43353531206958e-05,1.047213481797371e-05,-4.681816426455043e-05,1739367207067.019
-1.3136288544046693e-05,1.7237606471098843e-06,3.997693056589924e-05,4.35360379924532e-06,-4.4137606892036274e-05,1739367207067.52
-4.768675808008993e-06,2.842422873072792e-06,4.6826331526972353e-05,-1.1148634939672777e-06,-4.1646049794508144e-05,1739367207068.021
2.776740529952804e-06,3.017046765307896e-06,5.391297599999234e-05,-2.4141075982697657e-07,-3.8071924791438505e-05,1739367207068.522
8.38606047182111e-06,3.6391616049513686e-06,6.409177149180323e-05,4.4407584027794655e-06,-3.670529986266047e-05,1739367207069.0227
1.2058023457939273e-05,5.202536158321891e-06,7.892008579801768e-05,8.351959877472837e-06,-3.63994186045602e-05,1739367207069.5237
1.653191793593578e-05,7.001000085438136e-06,8.860200614435598e-05,8.718658136785962e-06,-3.588462277548388e-05,1739367207070.025
2.2834628907730803e-05,8.728072316444013e-06,8.365390385733917e-05,7.271865797520149e-06,-3.5574401408666745e-05,1739367207070.5256
2.807737655530218e-05,1.1696769433910958e-05,6.877945270389318e-05,7.453263151546707e-06,-3.511449176585302e-05,1739367207071.0264
3.100155299762264e-05,1.5221250578179024e-05,5.361179501051083e-05,7.353214186878176e-06,-3.396957254153676e-05,1739367207071.527
3.059424852835946e-05,1.7687903891783208e-05,4.857504245592281e-05,6.284271421463927e-06,-3.297530201962218e-05,1739367207072.0283
2.794540887407493e-05,1.6637341104797088e-05,6.949863745830953e-05,4.885577709501376e-06,-3.3069172786781564e-05,1739367207072.5293
2.5234916392946616e-05,1.158564100478543e-05,0.0001194933574879,3.672939783427864e-06,-3.39901635015849e-05,1739367207073.03
2.38167467614403e-05,6.08171876592678e-06,0.0001542997633805,1.766465175023768e-06,-3.457761340541765e-05,1739367207073.531
2.6159661501878876e-05,4.151270786678651e-06,0.000141360273119,3.323314331282745e-06,-3.595165253500454e-05,1739367207074.032
3.617202673922293e-05,5.401908310886938e-06,9.822163701755926e-05,9.15527289180318e-06,-3.869024294544943e-05,1739367207074.533
5.643322947435081e-05,7.714391358604189e-06,5.643740587402135e-05,1.4445173292187974e-05,-4.159701711614616e-05,1739367207075.0337
8.379108476219699e-05,1.0419436875963584e-05,2.173235588998068e-05,1.4338819710246751e-05,-4.30197105742991e-05,1739367207075.535
0.0001061228249454,1.3613646842713932e-05,-2.648912868608022e-06,7.811797331669368e-06,-4.215464286971837e-05,1739367207076.0356
0.0001024640223477,1.7040243619703688e-05,-1.4540164556819946e-05,-1.887498001451604e-06,-4.227679528412409e-05,1739367207076.5364
6.054066034266725e-05,2.1772884792881086e-05,-1.2225328646309208e-05,-8.746658750169445e-06,-4.332306343712844e-05,1739367207077.0374
-1.2657315892283805e-05,2.951833266706672e-05,-2.559469976404216e-06,-1.3704697266803125e-05,-4.329364310251549e-05,1739367207077.5383
-8.207235805457458e-05,3.703998663695529e-05,6.869426215416752e-06,-2.005026544793509e-05,-4.331089439801872e-05,1739367207078.0393
-0.0001248913176823,3.745928916032426e-05,8.934042853070423e-06,-2.2565916879102588e-05,-4.2155617848038673e-05,1739367207078.54
-0.0001391716796206,3.543047569110058e-05,8.058401363086887e-06,-2.2982190785114653e-05,-4.068876296514645e-05,1739367207079.041
-0.0001251790381502,3.464125620666891e-05,5.370186954678502e-06,-2.2227413865039125e-05,-4.008056930615567e-05,1739367207079.542
-8.917754894355312e-05,3.354492218932137e-05,3.911964995495509e-06,-1.851401430030819e-05,-3.911740714102052e-05,1739367207080.043
-3.926942008547485e-05,2.921126360888593e-05,4.160774551564828e-06,-1.688570591795724e-05,-3.914861008524895e-05,1739367207080.5437
1.073491330316756e-05,2.375975964241661e-05,5.354943368729437e-06,-1.5914114555926062e-05,-4.0737781091593206e-05,1739367207081.045
5.013321060687304e-05,2.06199983949773e-05,6.672063591395272e-06,-1.327715472143609e-05,-4.18385025113821e-05,1739367207081.5457
7.121791713871062e-05,1.9278848412795924e-05,9.180136657960247e-06,-1.1936025657632854e-05,-4.191856351098977e-05,1739367207082.0466
6.561711052199826e-05,1.9794219042523764e-05,1.343273379461607e-05,-1.2368639545456972e-05,-4.280790744815022e-05,1739367207082.5474
3.1549465347779915e-05,2.071244853141252e-05,1.512394374003634e-05,-1.183338463306427e-05,-4.352319592726417e-05,1739367207083.0483
-1.560519558552187e-05,2.2092395738582127e-05,1.8910166545538232e-05,-1.0269593985867688e-05,-4.561880268738605e-05,1739367207083.5493
-5.333553781383671e-05,2.266176488774363e-05,2.9099664970999584e-05,-9.264073014492167e-06,-4.9470658268546686e-05,1739367207084.0503
-7.423561328323558e-05,2.2486068701255132e-05,3.870947693940252e-05,-7.2465600169380195e-06,-5.133959712111391e-05,1739367207084.551
-9.259309445042164e-05,2.398275864834432e-05,3.861183358822018e-05,-3.3500930385343963e-06,-5.078400863567367e-05,1739367207085.052
-0.0001245214225491,2.6658448405214585e-05,2.8901655241497792e-05,1.034674369293498e-06,-4.946063927491196e-05,1739367207085.553
-0.0001664812734816,2.7081438020104542e-05,1.6483174476888962e-05,5.023895482736407e-06,-4.818976958631538e-05,1739367207086.054
-0.000197775880224,2.381037666054908e-05,9.018147466122173e-06,9.45392548601376e-06,-4.746634294860996e-05,1739367207086.5547
-0.0002017395599978,1.7836478946264833e-05,6.726177616656059e-06,1.1939112482650671e-05,-4.710980283562094e-05,1739367207087.0557
-0.0001810924441087,1.2881955626653507e-05,1.743188659020234e-05,1.3746841432293875e-05,-4.532723323791288e-05,1739367207087.5566
-0.0001505309628555,1.1675038877001498e-05,8.747373067308217e-05,1.840564073063433e-05,-4.336549318395555e-05,1739367207088.0576
-0.0001261484721908,1.1217615792702418e-05,0.000245017290581,2.3868073185440156e-05,-4.355201963335276e-05,1739367207088.5583
-0.0001101949092117,8.702074410393834e-06,0.0003521038743201,2.692515408853069e-05,-4.4461365177994594e-05,1739367207089.059
-9.71413028310053e-05,5.8417831496626604e-06,0.0002786884724628,2.584178582765162e-05,-4.397876182338223e-05,1739367207089.5603
-8.756870374782011e-05,2.13657563108427e-06,0.000105056540633,2.1177465896471404e-05,-4.331865420681424e-05,1739367207090.0613
-8.767948020249605e-05,-2.0506179225776577e-06,-4.285055911168456e-05,1.8682760128285736e-05,-4.385310239740648e-05,1739367207090.562
-9.638234041631222e-05,-7.449328677466838e-06,-0.0001365429197903,2.0872595996479504e-05,-4.581563553074375e-05,1739367207091.063
-9.818717080634087e-05,-1.57499252964044e-05,-0.0001940545334946,2.138171475962736e-05,-4.738553616334684e-05,1739367207091.564
-8.405443077208474e-05,-2.278849933645688e-05,-0.0002042395935859,2.1529978766920976e-05,-4.786673525813967e-05,1739367207092.065
-5.997661355650053e-05,-2.6800058549270037e-05,-0.0001627117453608,2.5655104764155112e-05,-4.867123061558232e-05,1739367207092.5657
-2.7601041438174437e-05,-2.524964838812593e-05,-0.0001096703272196,3.472233220236376e-05,-4.972426177118905e-05,1739367207093.067
1.902807525766548e-05,-1.8969914890476502e-05,-7.459679181920364e-05,4.608208473655395e-05,-4.914395685773343e-05,1739367207093.5676
7.37137597752735e-05,-1.165821868198691e-05,-5.05181415064726e-05,5.230333408690058e-05,-4.745685873785988e-05,1739367207094.0686
0.0001112876489059,-5.0813214329537e-06,-2.6555126169114374e-05,5.489103932632133e-05,-4.554471161100082e-05,1739367207094.569
0.0001000200863927,-4.4418911215871055e-08,6.22064135313849e-06,5.4783409723313525e-05,-4.215887383907102e-05,1739367207095.0703
4.424818325787783e-05,7.477643066522432e-06,3.6352910683490336e-05,5.0003491196548566e-05,-4.085637192474678e-05,1739367207095.5713
-1.3312462215253618e-05,1.7928157831192948e-05,5.002057150704786e-05,4.2373972974019125e-05,-4.019994594273157e-05,1739367207096.072
-3.589237167034298e-05,2.662924089236185e-05,5.672758925356902e-05,3.298220690339804e-05,-3.915363413398154e-05,1739367207096.573
-1.6260835764114745e-05,3.026690501428675e-05,6.157173629617319e-05,2.2900840122019872e-05,-3.751207987079397e-05,1739367207097.074
2.267763920826837e-05,3.0426115699810907e-05,6.600760389119387e-05,1.3626528016175143e-05,-3.551755435182713e-05,1739367207097.575
3.891252708854154e-05,2.7408686946728267e-05,6.704595580231398e-05,5.813430561829591e-06,-3.4126020182156935e-05,1739367207098.0757
-1.868818685579754e-06,2.25175972445868e-05,6.272301106946543e-05,2.7857879558723653e-07,-3.3680473279673606e-05,1739367207098.577
-9.153217979473992e-05,1.6677082385285757e-05,4.965083644492552e-05,-2.6005884592450457e-06,-3.449850919423625e-05,1739367207099.0776
-0.0001800400204956,1.0851688784896396e-05,3.226802800782025e-05,-3.043020115001127e-06,-3.633294545579702e-05,1739367207099.5786
-0.0002247208904009,5.764800334873144e-06,1.6672122001182288e-05,-3.4613556181284366e-06,-3.872175147989765e-05,1739367207100.079
-0.0002258140448248,2.838883801814518e-06,3.548695758581744e-06,-4.773615728481673e-06,-3.904028562828898e-05,1739367207100.5803
-0.0002064960281131,1.981836021514028e-06,-9.61193200055277e-06,-5.460267402668251e-06,-3.852943336823955e-05,1739367207101.0813
-0.0001814996358007,1.9953481569245923e-06,-2.0485656932578426e-05,-4.276148501958232e-06,-4.0009745134739205e-05,1739367207101.5825
-0.0001550334272906,5.389771558839129e-06,-2.7483587473398075e-05,-2.1866715087526245e-06,-4.227884710417129e-05,1739367207102.083
-0.0001305409969063,9.217990736942738e-06,-3.420698340050876e-05,-3.948788616980892e-06,-4.318621358834207e-05,1739367207102.584
-0.0001092146922019,1.0813556400535164e-05,-3.733411358552985e-05,-7.545839252998121e-06,-4.308818824938498e-05,1739367207103.085
-8.804937533568591e-05,1.28436322484049e-05,-3.3507436455693096e-05,-7.876346899138298e-06,-4.131120294914581e-05,1739367207103.586
-6.559786561410874e-05,1.318378508585738e-05,-2.7722491722670384e-05,-7.329584150284063e-06,-4.072663796250709e-05,1739367207104.087
-4.040886051370762e-05,1.141472876042826e-05,-2.31598114623921e-05,-5.207200501899933e-06,-4.18264462496154e-05,1739367207104.5876
-9.613887414161582e-06,7.670853847230319e-06,-1.878479451988824e-05,-1.147331659012707e-06,-4.2076095269294456e-05,1739367207105.0886
1.7531834600958973e-05,2.043799298689919e-07,-1.0164460036321543e-05,-5.980413675388263e-07,-4.1294519178336486e-05,1739367207105.5896
2.3817667170078494e-05,-7.4324320848973e-06,1.779588956196676e-07,7.282867500180146e-06,-4.183677810942754e-05,1739367207106.0903
1.5289651855709963e-05,-1.1036908290407156e-05,8.246892321039923e-06,5.0627902965061367e-05,-4.311167140258476e-05,1739367207106.5913
6.341518201224972e-06,-9.90056560112862e-06,1.6998701539705507e-05,0.0001128564981627,-4.209045800962485e-05,1739367207107.0923
8.174793947546277e-06,-7.778816325298976e-06,2.412280809949152e-05,0.0001413795689586,-4.06897597713396e-05,1739367207107.5933
3.1511626730207354e-05,-3.09121446662175e-06,2.7633297577267516e-05,0.0001228979381266,-4.163644916843623e-05,1739367207108.094
6.6039377998095e-05,3.902356183971278e-06,2.947637221950572e-05,6.934709381312132e-05,-4.199976319796406e-05,1739367207108.595
9.714146290207282e-05,1.3498226508090738e-05,3.511464092298411e-05,6.831589871580945e-06,-4.1497823985992e-05,1739367207109.096
0.0001044581076712,2.188539474445861e-05,4.281952351448126e-05,-3.972484773839824e-05,-4.291182631277479e-05,1739367207109.597
7.844759966246784e-05,2.7994854463031515e-05,4.835047002416104e-05,-4.538213761406951e-05,-4.637880920199677e-05,1739367207110.0977
2.694362410693429e-05,3.325485158711672e-05,5.029147723689675e-05,-8.017833351914305e-06,-4.715599425253458e-05,1739367207110.5986
-3.139083491987549e-05,3.79279772459995e-05,5.015374699723907e-05,3.186702815582976e-05,-4.4361819163896143e-05,1739367207111.0996
-7.168546289904043e-05,4.280985376681201e-05,4.533633546088822e-05,4.211321720504202e-05,-4.234773587086238e-05,1739367207111.6006
-7.808870577719063e-05,4.4452019210439175e-05,3.995934457634576e-05,2.6547821107669733e-05,-4.311636803322472e-05,1739367207112.1013
-5.2146398957120255e-05,4.2814801417989656e-05,3.613317312556319e-05,5.973791303404141e-06,-4.4253378291614354e-05,1739367207112.6023
-1.300548956351122e-05,3.978113090852276e-05,3.487471622065641e-05,-1.848758984124288e-05,-4.312635428505018e-05,1739367207113.1033
1.690551835054066e-05,3.733341509359889e-05,3.521355029079132e-05,-5.134547609486617e-05,-4.245517629897222e-05,1739367207113.604
2.618500184325967e-05,3.5052686143899336e-05,3.504676351440139e-05,-7.875255687395111e-05,-4.322331005823799e-05,1739367207114.105
1.570164386066608e-05,3.2988387829391286e-05,3.499935337458737e-05,-8.490987966069952e-05,-4.498162888921797e-05,1739367207114.606
-1.5167675883276388e-05,3.218894198653288e-05,3.596350143197924e-05,-7.468057447113097e-05,-4.561694004223682e-05,1739367207115.107
-6.338199455058202e-05,3.347947131260298e-05,3.607643157010898e-05,-5.941812923992984e-05,-4.4467495172284544e-05,1739367207115.6077
-0.0001220748818013,3.4011311072390527e-05,3.313049819553271e-05,-4.640951738110744e-05,-4.330600131652318e-05,1739367207116.1086
-0.0001751611562212,3.0677299946546555e-05,2.9307466320460666e-05,-3.795873271883465e-05,-4.3729010940296575e-05,1739367207116.6096
-0.0002042766282102,2.1793661289848387e-05,2.7624388167168945e-05,-2.9175207600928843e-05,-4.548198558040895e-05,1739367207117.1106
-0.000203052200959,1.176908153865952e-05,2.746717473200988e-05,-1.7216696505784057e-05,-4.408310633152723e-05,1739367207117.611
-0.0001696897234069,6.114563348091906e-06,2.746965765254572e-05,1.497788616688922e-06,-4.073306990903802e-05,1739367207118.1123
-0.0001194939613924,4.418923708726652e-06,2.6331785193178803e-05,3.707003270392306e-05,-4.176332731731236e-05,1739367207118.6133
-8.05179588496685e-05,4.319808795116842e-06,2.0267905711079948e-05,7.637998351128772e-05,-4.472211003303528e-05,1739367207119.1145
-7.405246287817135e-05,5.5048458307283e-06,1.830809560487978e-05,8.212758257286623e-05,-4.381688995636068e-05,1739367207119.615
-8.537570101907477e-05,5.831706403114367e-06,2.050303010037169e-05,5.413254984887317e-05,-4.081460429006256e-05,1739367207120.116
-8.321354107465595e-05,6.109937658038689e-06,2.2182979591889307e-05,1.7416226910427213e-05,-3.961857510148548e-05,1739367207120.617
-6.202943768585101e-05,7.021251803962514e-06,2.2566760890185836e-05,-1.9545179384294897e-05,-3.939188536605798e-05,1739367207121.118
-2.8134070817031898e-05,8.146118489094079e-06,2.1026677131885663e-05,-4.967304630554281e-05,-4.1373885323992e-05,1739367207121.619
-1.9309020160562798e-07,9.134237188845871e-06,1.9710370906977918e-05,-6.604232476092875e-05,-4.025734597234987e-05,1739367207122.1196
1.9960953068220988e-05,8.083855391305406e-06,2.0127448806306347e-05,-6.86890198267065e-05,-3.689808363560587e-05,1739367207122.6206
3.692997415782884e-05,7.349377938226098e-06,2.172784115828108e-05,-6.323755951598287e-05,-3.596360329538584e-05,1739367207123.1216
5.420671732281335e-05,5.849914487043861e-06,2.216412940470036e-05,-3.217950143152848e-05,-3.6255467421142384e-05,1739367207123.6223
6.82266618241556e-05,4.28227758675348e-06,2.066844172077253e-05,2.4252207367680967e-05,-3.738578379852697e-05,1739367207124.1233
7.420695328619331e-05,2.500132950444822e-06,1.9131770386593416e-05,6.918582221260294e-05,-3.789722904912196e-05,1739367207124.6245
7.411467959173024e-05,8.281254508801794e-07,1.8761600586003624e-05,7.628739695064723e-05,-3.829181150649674e-05,1739367207125.1252
6.907452188897878e-05,1.2592226994456723e-06,1.885313395177945e-05,5.1954371883766726e-05,-3.946128708776087e-05,1739367207125.626
5.543529550777748e-05,4.243775492795976e-06,1.84589243872324e-05,1.646154123591259e-05,-4.106008418602869e-05,1739367207126.127
2.8252452466404065e-05,7.269166417245287e-06,1.922715637192596e-05,-1.8328659280086868e-05,-4.234985317452811e-05,1739367207126.628
-1.113976486522006e-05,6.797012702008942e-06,2.1134810594958253e-05,-4.456893293536268e-05,-4.468165570870042e-05,1739367207127.129
-5.725865776184946e-05,4.272553269402124e-06,2.245257383037824e-05,-5.789132046629675e-05,-4.6880617446731776e-05,1739367207127.6296
-9.934660920407624e-05,2.20402375816775e-06,2.2914218789082952e-05,-5.619137300527655e-05,-4.742465171148069e-05,1739367207128.1306
-0.0001233775692526,2.3585723738506204e-06,2.440102252876386e-05,-4.641492705559358e-05,-4.651015478884801e-05,1739367207128.6316
-0.0001201136255986,4.708466804004274e-06,2.6074800189235248e-05,-3.826618558377959e-05,-4.542421083897352e-05,1739367207129.1326
-0.0001025834499159,6.624562956858426e-06,2.381379817961715e-05,-3.337658563395962e-05,-4.246156822773628e-05,1739367207129.6333
-8.513336797477677e-05,6.216374913492473e-06,1.7791973732528277e-05,-2.585977199487388e-05,-3.792195275309496e-05,1739367207130.1345
-7.419520989060402e-05,5.0347416618024e-06,1.170911218650872e-05,-1.87406076292973e-05,-3.6275218008086085e-05,1739367207130.6353
-6.465387559728697e-05,4.331208856456215e-06,8.934777724789456e-06,-8.919771062210202e-06,-3.936412758775987e-05,1739367207131.1362
-5.049252649769187e-05,4.109459950996097e-06,7.653776265215129e-06,1.5295147477445423e-06,-4.309531504986808e-05,1739367207131.637
-2.215925087512005e-05,4.584283033182146e-06,8.721605809114408e-06,6.79781169310445e-06,-4.3482257751747966e-05,1739367207132.138
2.305732778040692e-05,5.083300038677408e-06,1.2793535461241843e-05,1.2432379662641324e-05,-4.086061744601466e-05,1739367207132.639
6.167681567603722e-05,5.55051747141988e-06,1.7777561879483983e-05,4.2407609726069495e-05,-3.930515595129691e-05,1739367207133.1396
8.573934610467404e-05,7.406759323203005e-06,2.7349024094291963e-05,7.91163110989146e-05,-4.063356755068526e-05,1739367207133.6406
0.0001115143313654,1.039578091877047e-05,5.092739229439758e-05,0.0001055548054864,-4.21229015046265e-05,1739367207134.1416
0.0001461383799323,1.4462848412222227e-05,0.0001016651149257,0.0001344084885204,-4.107949280296452e-05,1739367207134.6426
0.0001800252794055,1.844331927713938e-05,0.0002019655657932,0.0001249389461008,-3.95368660974782e-05,1739367207135.1433
0.0001784135238267,2.0714709535241127e-05,0.0002925684093497,5.3425606893142685e-05,-4.019835978397168e-05,1739367207135.6443
0.0001152804179582,1.945035546668805e-05,0.00026717124274,-4.9676993512548506e-05,-4.1954208427341655e-05,1739367207136.1453
-1.6566516478633275e-06,1.5889092537690885e-05,0.0001337374997092,-0.0001329117076238,-4.410902329254896e-05,1739367207136.6462
-0.0001277463452424,1.4388900126505176e-05,-2.499273068679031e-05,-0.0001770839298842,-4.522331801126711e-05,1739367207137.147
-0.0002188909566029,1.4831748558208346e-05,-0.0001389423996442,-0.0001845223305281,-4.475073365028948e-05,1739367207137.648
-0.0002540232380852,1.5437002730323002e-05,-0.0001608931779628,-0.0001623530552024,-4.515793625614606e-05,1739367207138.149
-0.0002439977834001,1.6269930711132474e-05,-4.3726260628318414e-05,-0.0001228906912729,-4.633969001588412e-05,1739367207138.65
-0.0002151785884052,1.722817432892043e-05,0.0001297520793741,-8.277274901047349e-05,-4.634006108972244e-05,1739367207139.1506
-0.0001815229479689,1.875292764452752e-05,0.0001870951673481,-5.5737509683240205e-05,-4.615513898897916e-05,1739367207139.6516
-0.0001456077297916,1.9475914086797275e-05,9.587171371094882e-05,-3.991605626652017e-05,-4.69352635263931e-05,1739367207140.1526
-0.000110054090328,1.8528315194998868e-05,-4.8177866119658574e-05,-3.467437636572868e-05,-4.868943506153301e-05,1739367207140.6536
-8.539379632566124e-05,1.915432767418679e-05,-0.0001611045590834,-3.9203427149914205e-05,-5.038678500568494e-05,1739367207141.1543
-7.572656613774598e-05,2.141928234777879e-05,-0.0002218800800619,-4.588402953231707e-05,-5.096766835777089e-05,1739367207141.6553
-8.153884118655697e-05,2.3515287466580048e-05,-0.0002289549447596,-4.335374615038745e-05,-4.976310447091237e-05,1739367207142.1562
-0.0001054283347912,2.4866712919902056e-05,-0.0001972875907085,-3.3204207284143195e-05,-4.876671664533205e-05,1739367207142.6572
-0.0001471467112423,2.4430773919448256e-05,-0.0001530306471977,-2.1741925593232736e-05,-4.941921724821441e-05,1739367207143.158
-0.0001908188860397,2.046435110969469e-05,-0.0001148818118963,-1.297694689128548e-05,-5.172694363864139e-05,1739367207143.659
-0.0002179000875912,1.4379520507645792e-05,-8.26697942102328e-05,-5.0369299060548656e-06,-5.479624087456614e-05,1739367207144.16
-0.0002140920551028,8.995166353997774e-06,-5.708053504349664e-05,2.6354337023803964e-06,-5.667341247317381e-05,1739367207144.661
-0.0001858359755715,5.148075160832377e-06,-3.1078550819074735e-05,1.1426272067183165e-05,-5.680534377461299e-05,1739367207145.1616
-0.0001511683512944,3.68947371498507e-06,3.3871550840558484e-05,2.3887007046141665e-05,-5.698353925254196e-05,1739367207145.6626
-0.0001276715338462,4.271158104529604e-06,0.000246367562795,3.545435538399033e-05,-5.570486609940417e-05,1739367207146.1636
-0.0001203565188916,6.10046345173032e-06,0.0004298395069781,3.13522141368594e-05,-5.235998469288461e-05,1739367207146.6646
-0.0001098908905987,9.731814316182865e-06,0.0003642844676505,1.953344872163143e-05,-4.841988629777916e-05,1739367207147.1653
-8.16911633592099e-05,1.2468725799408276e-05,0.0001641013514017,1.7035685232258402e-05,-4.4038082705810666e-05,1739367207147.6665
-5.053374115959741e-05,1.2744622836180495e-05,-4.31859734817408e-05,2.7570520614972335e-05,-4.046903268317692e-05,1739367207148.1672
-3.102532718912698e-05,1.2997771591471974e-05,-0.0001786170032573,4.207294477964752e-05,-3.849707354675047e-05,1739367207148.6682
-2.2478603568742983e-05,1.4899996131134683e-05,-0.0002430770400678,4.36986520071514e-05,-3.608420229284093e-05,1739367207149.169
-1.644787516852375e-05,1.762855208653491e-05,-0.0002316304744454,3.041290256078355e-05,-3.317769733257592e-05,1739367207149.67
-7.39537335903151e-06,1.7474387277616188e-05,-0.0001844918442657,1.9455965230008587e-05,-3.304032361484133e-05,1739367207150.171
4.971514044882497e-06,1.2862510629929602e-05,-0.000139782030601,2.120952012774069e-05,-3.550774636096321e-05,1739367207150.672
1.2040851288475096e-05,6.311778179224348e-06,-0.0001114156693802,2.5947332687792368e-05,-3.831146386801265e-05,1739367207151.1726
6.175289399834583e-06,1.2724647149298107e-06,-9.019240678753704e-05,2.891188341891393e-05,-3.938114969059825e-05,1739367207151.6736
-7.109408670658013e-06,-2.443122639306239e-06,-6.883082096464932e-05,2.951274291262962e-05,-4.0327886381419376e-05,1739367207152.1746
-1.2662604603974614e-05,-4.963251740264241e-06,-5.027006773161702e-05,3.2455205655423924e-05,-3.998862302978523e-05,1739367207152.6753
9.31388967728708e-07,-5.140965186001267e-06,-3.213286254322156e-05,3.336412919452414e-05,-3.874874892062508e-05,1739367207153.1765
3.30012189806439e-05,-4.398820237838663e-06,-1.863905163190793e-05,2.9965427529532462e-05,-3.7563582736765966e-05,1739367207153.6772
7.29567909729667e-05,-4.097926648682915e-06,-3.080800070165424e-06,2.657793993421365e-05,-3.7748592149000615e-05,1739367207154.1782
0.0001022733849822,-2.6827858619071776e-06,1.0192499757977204e-05,2.613209289847873e-05,-3.920145900337957e-05,1739367207154.679
0.0001080761285265,1.089637180484715e-06,2.4590781322331168e-05,2.4392364139202986e-05,-3.856506373267621e-05,1739367207155.18
9.389273327542468e-05,6.868462605780223e-06,3.292815017630346e-05,2.1098816432640888e-05,-3.653442036011256e-05,1739367207155.681
7.706490578129888e-05,1.3860723811376374e-05,4.511396764428355e-05,2.1476869733305648e-05,-3.689910590765066e-05,1739367207156.182
6.959759775782004e-05,1.7980995835387148e-05,7.064565579639748e-05,2.548211523389909e-05,-4.058240301674232e-05,1739367207156.6826
6.938043952686712e-05,1.7733844288159162e-05,0.0001249986235052,2.881246109609492e-05,-4.1876301111187786e-05,1739367207157.1836
6.270269659580663e-05,1.6750778740970418e-05,0.000166012730915,3.041388663405087e-05,-4.035100573673844e-05,1739367207157.6846
3.753973578568548e-05,1.666922435106244e-05,0.0001550391607452,3.301792821730487e-05,-3.8578014937229455e-05,1739367207158.1855
-9.34635136218276e-06,1.85475691978354e-05,0.0001073576131602,3.293085319455713e-05,-3.907422797055915e-05,1739367207158.6863
-6.340033723972738e-05,2.338094600418117e-05,6.443634629249573e-05,3.475430276012048e-05,-4.068579073646106e-05,1739367207159.1873
-0.0001117183855967,2.938964644272346e-05,2.9597471439046785e-05,4.369666930870153e-05,-4.0574966988060623e-05,1739367207159.6882
-0.0001407339295838,3.360910341143608e-05,5.219730155658908e-06,4.906065805698745e-05,-3.898669092450291e-05,1739367207160.1892
-0.0001502281957073,3.613872831920162e-05,-5.917081580264494e-06,4.960449950885959e-05,-3.836780524579808e-05,1739367207160.69
-0.0001502144586993,3.524347266647965e-05,-3.723344207173795e-06,4.468180486583151e-05,-4.032430297229439e-05,1739367207161.191
-0.0001435346057405,3.08146518364083e-05,5.661296199832577e-06,3.046497113246005e-05,-3.968404053011909e-05,1739367207161.692
-0.0001284359459532,2.7191716071683917e-05,1.3108556231600232e-05,1.9420866010477766e-05,-3.8179852708708495e-05,1739367207162.1929
-0.0001046999241225,2.4005956220207736e-05,1.7707981896819547e-05,1.08867789094802e-05,-3.7313002394512296e-05,1739367207162.6936
-8.247458754340187e-05,2.3531631086370908e-05,1.833370879467111e-05,3.6501078284345567e-06,-3.702452886500396e-05,1739367207163.1946
-6.289215525612235e-05,2.473409222147893e-05,2.022186163230799e-05,8.047796313803701e-07,-3.657716297311708e-05,1739367207163.6956
-4.4670825445791706e-05,2.132368717866484e-05,2.37921740335878e-05,3.040524916286813e-06,-3.498637306620367e-05,1739367207164.1963
-2.390608460700605e-05,1.320477167610079e-05,2.860343010979705e-05,4.243899638822768e-06,-3.5038054193137214e-05,1739367207164.6973
4.166545750194928e-06,5.594351478066528e-06,3.2819880289025605e-05,1.5438436093972996e-06,-3.688000651891343e-05,1739367207165.1982
4.294905011192896e-05,1.0441010545036988e-06,3.7993104342604056e-05,-9.295643508266948e-07,-4.0305807488039136e-05,1739367207165.6992
8.20822679088451e-05,-9.26095879094646e-07,4.238183464622125e-05,-1.2848695405409671e-06,-4.188908496871591e-05,1739367207166.2002
0.0001070404614438,-1.943127699632896e-06,4.638003156287596e-05,6.206540206221689e-07,-4.188362436252646e-05,1739367207166.701
0.0001135999336838,-2.7405633318267064e-06,4.933122909278609e-05,3.7845254610147086e-06,-4.1202292777597904e-05,1739367207167.202
0.0001046644902089,-2.263694113935344e-06,5.423570837592706e-05,6.130658675829181e-06,-4.091001392225735e-05,1739367207167.703
7.760604057693854e-05,1.6408929468525455e-06,6.073217446100898e-05,4.460776381165488e-06,-4.207463643979281e-05,1739367207168.204
2.182186290156096e-05,9.078446964849718e-06,6.849033525213599e-05,5.023776452617312e-07,-4.390509275253862e-05,1739367207168.7046
-5.587191481026821e-05,1.875273483165074e-05,7.188734889496118e-05,-3.41593977282173e-06,-4.387423905427568e-05,1739367207169.2056
-0.0001200281622004,2.938247416750528e-05,7.380889292107895e-05,-4.40284566138871e-06,-4.328467548475601e-05,1739367207169.7063
-0.0001373990089632,3.930789171135984e-05,7.334688416449353e-05,-2.205587861681124e-06,-4.332857861299999e-05,1739367207170.2073
-0.0001082867529476,4.545189585769549e-05,6.57664131722413e-05,-7.262077588165994e-07,-4.370457099867053e-05,1739367207170.7085
-5.446376962936483e-05,4.617703234544024e-05,5.201525709708221e-05,-3.2222508252743864e-06,-4.610314863384701e-05,1739367207171.2092
-1.364777381240856e-05,4.31343651143834e-05,4.63429132651072e-05,-6.470212611020543e-06,-4.870951670454815e-05,1739367207171.7102
-1.997836989175994e-05,3.714791091624648e-05,5.536784010473639e-05,-9.193827281706037e-06,-5.003714250051417e-05,1739367207172.211
-6.706354179186746e-05,3.0495486498693936e-05,6.476443377323449e-05,-1.3318189303390682e-05,-5.124454764882103e-05,1739367207172.712
-0.0001286922051804,2.533529550419189e-05,6.280545494519174e-05,-1.241993231815286e-05,-5.17552180099301e-05,1739367207173.213
-0.0001793265109881,2.3377517209155485e-05,5.963692819932476e-05,4.288869490665093e-07,-5.026057988288812e-05,1739367207173.714
-0.0002040860417764,2.0934770873282105e-05,6.041124288458377e-05,2.048221722361632e-05,-5.200824671192095e-05,1739367207174.2146
-0.0002038795355474,1.6707184840925038e-05,5.738076288253069e-05,3.454204124864191e-05,-5.819511716254056e-05,1739367207174.7156
-0.0001854056317824,1.2578799214679748e-05,4.911177165922709e-05,3.904090044670738e-05,-6.070386370993219e-05,1739367207175.2166
-0.0001666124153416,8.822442396194674e-06,4.522149538388476e-05,3.92283036489971e-05,-5.92032665736042e-05,1739367207175.7175
-0.0001526772539364,5.301816599967424e-06,4.779500886797905e-05,3.431757431826554e-05,-5.918194437981583e-05,1739367207176.2185
-0.000143268101965,1.321908030149643e-06,4.9186779506271705e-05,3.026502236025408e-05,-6.116785516496748e-05,1739367207176.7192
-0.0001299570285482,-3.351622126501752e-06,4.439531403477304e-05,2.5951299903681505e-05,-6.261601811274886e-05,1739367207177.2202
-0.0001042729782056,-7.006979558354942e-06,3.649146310635842e-05,1.748066279105842e-05,-6.117947486927733e-05,1739367207177.7212
-6.356177618727088e-05,-7.723614544374868e-06,2.8746466341544877e-05,7.873697541072033e-06,-5.861079262103885e-05,1739367207178.222
-1.959383735083975e-05,-4.941811312164646e-06,2.4812858100631278e-05,-1.5543490405889318e-07,-5.668515950674191e-05,1739367207178.723
1.19247633847408e-05,-1.0952143156828242e-06,2.4481052605551668e-05,-7.204593657661462e-06,-5.575816976488568e-05,1739367207179.224
2.330790630367119e-05,4.065354346494132e-07,2.574644895503297e-05,-1.5881711078691296e-05,-5.537308970815502e-05,1739367207179.7249
1.301458996749716e-05,-8.637104542685847e-07,2.6421030270284973e-05,-2.1159614334465005e-05,-5.485229485202581e-05,1739367207180.2256
-1.0090627256431617e-05,-1.595376062368814e-07,2.472959204169456e-05,-3.249052269893582e-06,-5.226956636761315e-05,1739367207180.7266
-2.9722092222073115e-05,5.3087110245542135e-06,2.148338899132796e-05,5.815588156110607e-05,-4.805731077794917e-05,1739367207181.2275
-3.135127553832717e-05,1.2102944310754538e-05,1.930791768245399e-05,0.0001459072955185,-4.472825821721926e-05,1739367207181.7285
-1.891220745164901e-05,1.5722345779067837e-05,4.758531576953828e-05,0.0002084313018713,-4.33553614129778e-05,1739367207182.2292
-5.3323747124522924e-06,1.7135072994278744e-05,0.0001721966109471,0.0002181666786782,-4.275296305422671e-05,1739367207182.7302
-4.020111646241276e-06,1.766478453646414e-05,0.0003631124855019,0.0001856071758083,-4.130774686927907e-05,1739367207183.2312
-1.495082597102737e-05,1.632685052754823e-05,0.0004115131741855,0.0001255885581485,-4.059503771713935e-05,1739367207183.7322
-3.05585163005162e-05,1.4383524103322998e-05,0.0002579082502052,4.9152855353895575e-05,-4.105123662156984e-05,1739367207184.233
-3.855373142869212e-05,1.226276799570769e-05,5.624574987450615e-05,-4.034258017782122e-05,-4.097172131878324e-05,1739367207184.734
-3.4839897125493735e-05,9.219851563102566e-06,-9.108347148867324e-05,-0.0001211312555824,-3.931451283278875e-05,1739367207185.2349
-2.4748134819674306e-05,6.46547641736106e-06,-0.0001758021098794,-0.0001424409565515,-3.691719030030072e-05,1739367207185.7358
-1.74403303390136e-05,8.171713488991372e-06,-0.0002227144723292,-9.796678932616489e-05,-3.599196861614473e-05,1739367207186.2366
-1.05286089819856e-05,1.030651037581265e-05,-0.0002273849095217,-4.165405698586255e-05,-3.672710954560898e-05,1739367207186.7375
-1.322207481280202e-06,1.1041614015994128e-05,-0.0001942199160112,2.052923628070857e-05,-3.681163434521295e-05,1739367207187.2383
5.478096682054456e-06,9.493068318988662e-06,-0.000151410975377,7.956716581247747e-05,-3.5362823837203905e-05,1739367207187.7395
7.770241836624336e-07,6.547169050463708e-06,-0.0001178424354293,8.048104064073414e-05,-3.3707419788697734e-05,1739367207188.2402
-1.0600262612570075e-05,3.993328391516116e-06,-9.572782437317072e-05,1.2079934094799682e-05,-3.5023105738218874e-05,1739367207188.7412
-2.017199039983097e-05,2.039236278505996e-06,-8.31305660540238e-05,-8.397346391575411e-05,-3.861093136947602e-05,1739367207189.2422
-3.0029808840481564e-05,1.2362398820187082e-06,-7.501013169530779e-05,-0.0001420897169737,-3.834800736512989e-05,1739367207189.743
-3.392972575966269e-05,1.809520767892536e-06,-6.663211388513446e-05,-0.0001553129113744,-3.658665809780359e-05,1739367207190.244
-2.732080247369595e-05,4.080368853465188e-06,-5.593892637989484e-05,-0.0001644933217903,-3.568561442079954e-05,1739367207190.7449
-1.4309065591078252e-05,6.203753400768619e-06,-4.2946347093675286e-05,-0.0001737723941914,-3.615524838096462e-05,1739367207191.2458
-6.144648978079204e-06,7.824980457371566e-06,-2.9735680072917603e-05,-0.0001627455494599,-3.7365593016147614e-05,1739367207191.7466
-2.583170271464041e-06,9.400758244737515e-06,-1.761281419021543e-05,-0.0001452930882805,-3.7908517697360367e-05,1739367207192.2476
-1.0694812999645364e-06,1.1721686860255431e-05,-8.382719897781499e-06,-0.0001477535261074,-3.796898454311304e-05,1739367207192.7483
1.314880364589044e-06,1.4112413737166207e-05,-8.53665369504597e-07,-0.0001606385922059,-3.878495772369206e-05,1739367207193.2495
2.0960876554454444e-06,1.5585279470542446e-05,4.366369921626756e-06,-0.0001663214061409,-4.025954694952816e-05,1739367207193.7502
-6.2514745877706446e-06,1.5003598491603045e-05,9.86549275694415e-06,-0.0001633579522604,-4.057009209645912e-05,1739367207194.2512
-2.5354554963996637e-05,1.347138822893612e-05,1.5424302546307445e-05,-0.000161057076184,-4.113774411962368e-05,1739367207194.7522
-4.729926877189428e-05,1.263631656911457e-05,2.2239963072934188e-05,-0.0001554617338115,-4.207701567793265e-05,1739367207195.2532
-5.982058428344317e-05,1.2255758520041128e-05,2.586021764727775e-05,-0.0001372049155179,-4.211845589452423e-05,1739367207195.754
-5.284036160446704e-05,1.2105538189643994e-05,2.623784348543268e-05,-0.0001067949706339,-3.9996124542085454e-05,1739367207196.255
-2.2523279767483476e-05,1.3287435649544932e-05,2.747948747128248e-05,-7.517675112467259e-05,-3.7766465538879856e-05,1739367207196.756
1.821298064896837e-05,1.3911692803958433e-05,3.334012581035495e-05,-5.087281169835478e-05,-3.65784544555936e-05,1739367207197.2568
5.07847908011172e-05,1.1138470654259436e-05,4.11767432524357e-05,-2.9235414331196807e-05,-3.72413414879702e-05,1739367207197.7576
7.274135714396834e-05,6.090646365919383e-06,4.746692866319791e-05,-1.7753061456460273e-06,-4.073556556249969e-05,1739367207198.2583
8.00387206254527e-05,1.7173862261188333e-06,4.762995013152249e-05,2.146459337382112e-05,-4.4686887122225016e-05,1739367207198.7595
4.991695823264308e-05,-2.997375361246668e-07,4.508095298660919e-05,2.53616180998506e-05,-4.583018380799331e-05,1739367207199.2605
-2.038337515841704e-05,-3.677929214518372e-07,4.054410965181887e-05,2.0664441763074137e-05,-4.4875974708702415e-05,1739367207199.7612
-0.0001151017713709,8.41337168822065e-07,3.3112715755123645e-05,1.9158660506946035e-05,-4.4459324271883816e-05,1739367207200.2622
-0.000195898261154,-1.3422288702713558e-06,2.8235754143679515e-05,1.7465710698161274e-05,-4.590661046677269e-05,1739367207200.7632
-0.0002485694130882,-5.393887477112003e-06,2.664136081875768e-05,1.1043563063140027e-05,-4.6021435991860926e-05,1739367207201.2642
-0.0002743039513006,-6.72933265377651e-06,2.5509109036647715e-05,-2.5637095859565302e-06,-4.493497181101702e-05,1739367207201.765
-0.0002596627746243,-4.719608114100993e-06,2.576391125330701e-05,-3.744419245776953e-06,-4.284923488739878e-05,1739367207202.266
-0.0002203654585173,-1.921500597745762e-06,2.734133522608317e-05,1.772701580193825e-05,-4.193260247120634e-05,1739367207202.7668
-0.0001775382406776,-9.35590378503548e-07,2.497101195331197e-05,4.242529030307196e-05,-4.2057119571836665e-05,1739367207203.2678
-0.0001473465963499,4.115666342840996e-06,2.114375092787668e-05,5.933772990829311e-05,-4.2725689127109945e-05,1739367207203.7686
-0.0001322142779827,9.413941370439716e-06,1.807988883228973e-05,7.359321170952171e-05,-4.547727075987496e-05,1739367207204.2695
-0.0001289658102905,9.946035788743757e-06,1.7107346138800494e-05,0.0001065630203811,-4.782368341693655e-05,1739367207204.7705
-0.0001216302553075,8.27341773401713e-06,1.8928529243567027e-05,0.0001861899800132,-4.873806028626859e-05,1739367207205.2715
-0.0001066902259481,8.411620910919737e-06,2.260937071696389e-05,0.0002960009442176,-4.657837780541741e-05,1739367207205.7722
-9.232292359229176e-05,9.56673284235876e-06,2.639116610225756e-05,0.0003626553225331,-4.336734855314717e-05,1739367207206.2732
-8.222175529226661e-05,8.403402716794517e-06,2.8881398975499906e-05,0.0003504382329992,-4.135504786972888e-05,1739367207206.7742
-7.3954914114438e-05,5.60972148377914e-06,2.943048821180128e-05,0.0002870220923796,-4.1194023651769385e-05,1739367207207.275
-6.314409984042868e-05,5.606467311736196e-06,3.0681352654937655e-05,0.0002199196896981,-4.293961319490336e-05,1739367207207.776
-5.192464595893398e-05,1.14180320451851e-05,3.2738345908001065e-05,0.0001554469636175,-4.426840314408764e-05,1739367207208.2769
-4.007474854006432e-05,2.097983815474436e-05,3.456015474512242e-05,7.778094004606828e-05,-4.2741925426526e-05,1739367207208.7778
-3.1006009521661326e-05,2.9246257327031344e-05,3.3249678381253034e-05,-4.181863459962187e-06,-3.975276922574267e-05,1739367207209.2786
-2.471111474733334e-05,3.3798834920162335e-05,3.3361997338943183e-05,-7.170905155362561e-05,-3.6859124520560727e-05,1739367207209.7795
-1.9485953089315444e-05,3.507429937599227e-05,4.723965685116127e-05,-0.0001217282042489,-3.4397053241264075e-05,1739367207210.2805
-1.0540856237639671e-05,3.6026674933964387e-05,6.82660611346364e-05,-0.0001579317031428,-3.148602627334185e-05,1739367207210.7815
8.969732903096883e-07,3.853100861306302e-05,7.168745651142672e-05,-0.0001689128112047,-3.1420386221725494e-05,1739367207211.2822
1.237639025930548e-05,4.168185478192754e-05,5.50893928448204e-05,-0.0001464724482502,-3.366768578416668e-05,1739367207211.7832
2.111810681526549e-05,4.714271926786751e-05,3.650942016975023e-05,-0.0001153839111793,-3.254269540775567e-05,1739367207212.2842
2.6232850359519944e-05,4.832900958717801e-05,2.1394496798166077e-05,-8.962044375948608e-05,-3.0370618333108723e-05,1739367207212.7852
2.8951313652214598e-05,4.210800398141146e-05,7.22667664376786e-06,-3.31630180880893e-05,-3.101648326264694e-05,1739367207213.286
3.3439824619563296e-05,3.2561281841481104e-05,1.4832823580945842e-05,6.007865158608183e-05,-3.483551336103119e-05,1739367207213.7869
4.342879401519895e-05,2.4678840418346223e-05,0.0001141827451647,0.0001087617201847,-3.670754813356325e-05,1739367207214.2878
6.157786992844194e-05,2.18243967538001e-05,0.000258814980043,8.07896867627278e-05,-3.3784835977712646e-05,1739367207214.7888
8.597467240178958e-05,1.991390854527708e-05,0.0002840321394614,3.761178959393874e-05,-3.097077569691464e-05,1739367207215.2896
0.0001070010257535,1.4868238395138178e-05,0.0001781148603186,2.125206810887903e-05,-3.244311665184796e-05,1739367207215.7903
0.0001111906094592,1.00927727544331e-05,3.143610592815094e-05,4.373423143988475e-05,-3.678409120766446e-05,1739367207216.2915
0.0001005501908366,7.616424227308016e-06,-9.101167961489408e-05,7.308747444767505e-05,-3.983566784881987e-05,1739367207216.7925
9.206504182657228e-05,9.383520591654816e-06,-0.0001613754866411,6.266132550081238e-05,-4.068941416335292e-05,1739367207217.2932
9.601002238923684e-05,1.1927418199775277e-05,-0.0001751742820488,-9.860463251243344e-06,-4.1372513805981725e-05,1739367207217.7942
0.0001058202178683,1.1413986612751614e-05,-0.0001549785374663,-0.0001240080309798,-4.282823283574544e-05,1739367207218.2952
0.0001032818618114,8.89926559466403e-06,-0.0001255245006177,-0.0002315632009413,-4.254839950590394e-05,1739367207218.796
7.868029206292704e-05,7.352446118602529e-06,-9.64262508205138e-05,-0.0002851905592251,-4.059171624248848e-05,1739367207219.2969
3.1294981454266235e-05,8.674460332258604e-06,-7.47884187148884e-05,-0.0002826798590831,-3.861535515170544e-05,1739367207219.798
-2.926241904788185e-05,1.1868425644934176e-05,-5.802342639071867e-05,-0.0002383371029281,-3.794133954215795e-05,1739367207220.2988
-7.692325016250834e-05,1.4058476153877564e-05,-4.533194442046806e-05,-0.0001686576142674,-3.793408541241661e-05,1739367207220.7998
-9.132410923484711e-05,1.2226249964442104e-05,-3.377622124389745e-05,-9.551092080073432e-05,-3.8693135138601065e-05,1739367207221.3003
-8.171965600922704e-05,6.699496225337498e-06,-2.403422877250705e-05,-3.9055146771715954e-05,-4.025846646982245e-05,1739367207221.8015
-7.810548413544893e-05,1.8677876596484568e-06,-1.4829516658210196e-05,-1.2959056221006904e-05,-4.126773637835868e-05,1739367207222.3025
-0.000103292564745,4.279549727925769e-07,-9.27050678001251e-06,-1.8841206838260405e-05,-4.192725100438111e-05,1739367207222.8037
-0.0001501868100604,-4.962700472788129e-07,-6.682533694402082e-06,-3.845957689918578e-05,-4.1732022509677336e-05,1739367207223.3042
-0.0001916432229336,-5.166655796529085e-07,-5.534398042073008e-06,-2.844628761522472e-05,-4.100490696146153e-05,1739367207223.8052
-0.0002024138375418,1.3211356417741629e-06,-2.0922150270052957e-06,2.5773668312467635e-05,-4.109941437491216e-05,1739367207224.3062
-0.0001813368144212,3.849519998766482e-06,7.078956514305901e-06,8.61511507537216e-05,-4.2239862523274496e-05,1739367207224.8071
-0.0001470265269745,4.908668870484689e-06,5.3092968300916255e-05,0.0001182804553536,-4.4241805881029e-05,1739367207225.308
-0.0001219119876623,5.097344455862185e-06,0.0002046169101959,0.0001328021462541,-4.7503068344667554e-05,1739367207225.8088
-0.000124769823742,7.788281436660327e-06,0.0003767710877582,0.000140596210258,-5.1247665396658704e-05,1739367207226.3098
-0.0001555460476083,1.5148046259128025e-05,0.000373454124201,0.0001425824448233,-5.395662810769864e-05,1739367207226.8103
-0.0001850800763349,2.4929167921072803e-05,0.0001931892184074,0.0001369134843116,-5.297498501022346e-05,1739367207227.3115
-0.0001779753511073,3.5476019547786564e-05,-1.2772881419209624e-08,0.0001336166606051,-4.805319622391835e-05,1739367207227.8125
-0.000142130680615,4.299760621506721e-05,-0.0001243005390278,0.0001301859010709,-4.4791118853027e-05,1739367207228.3137
-0.0001022675351123,4.375044591142796e-05,-0.0001896791363833,0.0001224361476488,-4.370133683551103e-05,1739367207228.8142
-7.363509212154895e-05,3.6159595765639096e-05,-0.0001919719652505,0.0001088902718038,-4.4098364014644176e-05,1739367207229.3152
-6.940354796824977e-05,2.7285002943244763e-05,-0.0001606249134056,9.249671711586416e-05,-4.584684211295098e-05,1739367207229.8162
-8.173239621100947e-05,2.231774305982981e-05,-0.0001216761229443,7.503625238314271e-05,-4.587422517943196e-05,1739367207230.3171
-9.61634941631928e-05,2.231627149740234e-05,-9.18577643460594e-05,5.948165198788047e-05,-4.607997470884584e-05,1739367207230.818
-0.0001017192844301,2.700408913369756e-05,-6.659060454694554e-05,4.72176616312936e-05,-4.5117278204998e-05,1739367207231.3188
-9.928664803737774e-05,3.12073461827822e-05,-4.7235847887350246e-05,3.807335451710969e-05,-4.386805449030362e-05,1739367207231.8198
-9.290659363614397e-05,3.1160161597654223e-05,-3.487601497909054e-05,3.1871484679868445e-05,-4.3282689148327336e-05,1739367207232.3208
-8.648950461065397e-05,2.8072088753106076e-05,-2.4212449716287665e-05,2.4744209440541454e-05,-4.4673950469587e-05,1739367207232.8215
-8.326766692334786e-05,2.5605762857594527e-05,-1.544023871247191e-05,1.7243201000383124e-05,-4.682978033088148e-05,1739367207233.3225
-7.962459494592622e-05,2.4757686333032325e-05,-5.583638085226994e-06,1.1006093700416386e-05,-4.807787263416685e-05,1739367207233.8235
-6.192151340655982e-05,2.742482683970593e-05,4.75596743854112e-06,9.74018985289149e-06,-4.815886131837033e-05,1739367207234.3245
-2.3221649826155044e-05,3.1198316719383e-05,1.7787418983061798e-05,8.74258785188431e-06,-4.629568866221234e-05,1739367207234.8252
2.4489852876286022e-05,3.0973522370914e-05,2.861572284018621e-05,4.612828433891991e-06,-4.450474079931155e-05,1739367207235.3262
6.287084397627041e-05,2.5437675503781065e-05,4.329752846388146e-05,1.2113648608647054e-06,-4.4128548324806616e-05,1739367207235.8271
7.898499461589381e-05,1.8150343748857267e-05,6.926092464709654e-05,4.948306468577357e-06,-4.4674805394606665e-05,1739367207236.328
7.406301301671192e-05,1.2393936231092084e-05,0.0001519957877462,2.3205244360724464e-05,-4.444995283847675e-05,1739367207236.8289
6.134024442872033e-05,9.078759831027128e-06,0.0003217529738321,7.154305785661563e-05,-4.389950481709093e-05,1739367207237.3298
5.619932562694885e-05,6.0468992160167545e-06,0.0004414969589561,0.0001329999358858,-4.329091825638898e-05,1739367207237.8308
6.740897515555844e-05,3.4488477922423044e-06,0.0003426917828619,0.0001654639054322,-4.353250187705271e-05,1739367207238.3318
9.17265424504876e-05,1.7214748595506537e-06,0.0001100418085115,0.0001555257767904,-4.450543929124251e-05,1739367207238.8325
0.0001035447057802,8.404938967032649e-07,-9.397306712344287e-05,0.0001149683521362,-4.441948112798855e-05,1739367207239.3335
8.25157985673286e-05,-3.1857223348197294e-07,-0.0002118622651323,6.023899186402559e-05,-4.116944910492748e-05,1739367207239.8345
3.834880408248864e-05,-2.8441893391573103e-06,-0.0002507424214854,6.318359282886377e-06,-3.921338793588802e-05,1739367207240.3354
-1.5148274542298168e-05,-4.034700396005064e-06,-0.0002108731860062,-2.6870922738453373e-05,-4.162629193160683e-05,1739367207240.8362
-7.077031477820128e-05,-4.299089596315753e-06,-0.0001121262685046,-1.821163641579915e-05,-4.55660920124501e-05,1739367207241.3372
-0.0001171942349174,-3.343597200000658e-06,-1.5771423932164907e-05,1.1254441233177204e-05,-4.726757470052689e-05,1739367207241.838
-0.0001480346400057,-2.0816428332182117e-06,3.346843004692346e-05,2.467230660840869e-05,-4.678056575357914e-05,1739367207242.339
-0.0001599277602508,-2.310249101356021e-06,4.214133514324203e-05,3.401660796953365e-05,-4.761376476380974e-05,1739367207242.8398
-0.0001558741641929,-3.5067675980826607e-06,3.968673991039395e-05,9.40160098252818e-05,-5.047813829150982e-05,1739367207243.3408
-0.0001425465889042,-3.935528184229042e-06,4.7414352593477815e-05,0.000172569809365,-5.2389212214620784e-05,1739367207243.8418
-0.0001285503240069,-2.289799795107683e-06,5.76201782678254e-05,0.0002215559215983,-5.118708577356301e-05,1739367207244.3428
-0.0001251604699064,-5.575732586748928e-08,5.626364873023704e-05,0.0002421847893856,-4.92441286041867e-05,1739367207244.8435
-0.0001330615195911,1.4953516256355217e-06,4.556194107863121e-05,0.0001917722111102,-4.945176624460146e-05,1739367207245.3445
-0.0001370004320051,8.96443737019581e-07,3.120180917903781e-05,6.646795372944325e-05,-5.041914482717402e-05,1739367207245.8457
-0.0001297394192079,-1.0154182064070485e-06,2.0517647499218583e-05,-8.58989151311107e-05,-5.101305214338936e-05,1739367207246.3462
-0.0001141707689384,-2.8661381747951964e-06,1.042218536895234e-05,-0.0001988153526326,-5.138721826369874e-05,1739367207246.8472
-0.0001031998981488,-3.784936552619911e-06,4.685318515385007e-07,-0.0002543867449276,-5.1935385272372514e-05,1739367207247.348
-0.0001092188103939,-3.8118530483188806e-06,-5.145430804986972e-06,-0.0002795786422211,-5.354491440812126e-05,1739367207247.849
-0.0001246150350198,-1.5202227814370417e-06,2.908732277262516e-08,-0.0002987208135891,-5.4550455388380215e-05,1739367207248.35
-0.0001306550548179,2.809898887790041e-06,7.879367331042886e-06,-0.0003100532048847,-5.4309944971464574e-05,1739367207248.8508
-0.0001197970414068,6.44968667984358e-06,1.16761166282231e-05,-0.0002982249425258,-5.359666101867333e-05,1739367207249.3518
-9.991818660637364e-05,6.5744275161705445e-06,1.0023292816185858e-05,-0.0002585499896667,-5.1255996368126944e-05,1739367207249.8528
-7.678609108552337e-05,4.630162948160432e-06,7.997672582860105e-06,-0.0002056109515251,-4.5860469981562346e-05,1739367207250.3535
-4.8765112296678126e-05,3.530407866492169e-06,8.001857167982962e-06,-0.0001667761389398,-4.049100607517176e-05,1739367207250.8545
-1.1741596608771944e-05,4.087667093699565e-06,1.1056406947318465e-05,-0.000143163561006,-3.905091944034211e-05,1739367207251.3557
2.782190131256357e-05,6.783834578527603e-06,1.6250396583927795e-05,-0.0001112060344894,-4.003661524620839e-05,1739367207251.8564
6.251791637623683e-05,9.774735190148933e-06,2.536377905926201e-05,-4.840819019591436e-05,-4.0317430830327794e-05,1739367207252.3572
8.375144534511492e-05,1.172485644929111e-05,3.086206561420113e-05,4.023190558655188e-05,-3.872739398502745e-05,1739367207252.8582
8.074719517026097e-05,1.1640900993370453e-05,2.916416087828111e-05,0.0001073787934728,-3.733493213076145e-05,1739367207253.3591
5.358504859032109e-05,9.97220467979787e-06,2.738097282417584e-05,0.0001227530883625,-3.906780329998583e-05,1739367207253.86
1.1479731256258674e-05,8.958918442658614e-06,2.907533598772716e-05,9.567383676767348e-05,-4.2903953726636246e-05,1739367207254.3608
-2.1468958948389627e-05,1.0257701433147304e-05,3.0435738153755665e-05,3.004975042131264e-05,-4.253567385603674e-05,1739367207254.8618
-3.0544440960511565e-05,1.1283268577244598e-05,3.164516238030046e-05,-5.577619231189601e-05,-3.781074701691978e-05,1739367207255.3628
-2.358595884288661e-05,1.042767416947754e-05,3.201532308594324e-05,-0.0001417661551386,-3.509051748551428e-05,1739367207255.8638
-9.930655323842076e-06,8.696351869730279e-06,3.079476300626993e-05,-0.0001864663645392,-3.4936441807076335e-05,1739367207256.3645
-1.0456897143740207e-06,7.441298748744883e-06,2.9146040105842985e-05,-0.0001817609736463,-3.58706311089918e-05,1739367207256.8655
1.252204015145253e-06,5.628901817544829e-06,2.7033234800910577e-05,-0.0001491218135925,-3.719080632436089e-05,1739367207257.3665
-8.829788953335083e-07,3.269591161370045e-06,2.4413669962086715e-05,-0.0001099354412872,-3.810609632637352e-05,1739367207257.8674
-4.9158975343743805e-06,1.457741404919943e-06,2.255158506159205e-05,-7.802260370226577e-05,-3.638934504124336e-05,1739367207258.3682
-1.1086709491792137e-05,2.4771262019385176e-07,2.3795060769771222e-05,-5.58634455956053e-05,-3.4618664358276874e-05,1739367207258.8691
-1.2389869880280456e-05,2.151338549083448e-06,2.5520241251797412e-05,-2.721659438975621e-05,-3.387172182556242e-05,1739367207259.37
-1.0639544143487e-06,5.525291726371506e-06,2.833576763805468e-05,3.700804518302903e-05,-3.408820339245722e-05,1739367207259.871
2.6383828299003653e-05,5.0224630285811145e-06,3.077891960856505e-05,0.0001264220481971,-3.472966272966005e-05,1739367207260.3718
7.017478492343798e-05,2.250002125947504e-06,3.314271816634573e-05,0.0001868691761046,-3.4781980502884835e-05,1739367207260.8728
0.0001198880490846,1.433204715795e-06,3.533516428433359e-05,0.0001793550763977,-3.469399962341413e-05,1739367207261.3738
0.0001495867036283,5.01487375004217e-06,3.6879038816550747e-05,0.0001152690019807,-3.544032369973138e-05,1739367207261.8748
0.0001333705586148,9.009587301989086e-06,3.72149697795976e-05,3.073218613280915e-05,-3.667219789349474e-05,1739367207262.3755
7.41247131372802e-05,8.694730240677018e-06,3.868759449687786e-05,-3.381999704288319e-05,-3.8656984543194994e-05,1739367207262.8765
7.857478294681641e-07,4.344180979387602e-06,4.320798325352371e-05,-5.6865210353862494e-05,-4.023444853373803e-05,1739367207263.3774
-5.747550312662497e-05,7.760661446809536e-07,4.887463728664443e-05,-4.457562681636773e-05,-3.9088805351639166e-05,1739367207263.8782
-8.950294431997463e-05,-5.124398967382149e-07,5.160177533980459e-05,-2.1625764929922298e-05,-3.8658785342704505e-05,1739367207264.3792
-9.124819916905837e-05,3.4649542612896767e-06,4.962906677974388e-05,-3.1997853966458933e-06,-3.992666461272165e-05,1739367207264.88
-6.760472024325281e-05,1.2077640349161811e-05,4.373013143776916e-05,1.071032147592632e-05,-4.058982085552998e-05,1739367207265.381
-3.896162161254324e-05,1.9197786969016303e-05,4.165431164437905e-05,2.5884650312946175e-05,-4.002680725534447e-05,1739367207265.8818
-3.210075738024898e-05,2.41140241996618e-05,6.773695349693298e-05,3.168626062688418e-05,-4.055821045767516e-05,1739367207266.3828
-5.71081109228544e-05,2.709702130232472e-05,0.0002200146554969,3.0590599635615945e-05,-4.075351534993388e-05,1739367207266.8838
-0.000103194041003,3.10106624965556e-05,0.0004554793995339,3.613183071138337e-05,-4.175610229140148e-05,1739367207267.3848
-0.0001572060718899,3.398756598471664e-05,0.0004813892301172,5.1999566494487226e-05,-4.557993088383228e-05,1739367207267.8855
-0.0001936415646923,3.528073648340069e-05,0.0002673963317647,6.450914224842563e-05,-4.855408769799397e-05,1739367207268.3865
-0.0001925257383845,3.784999353229068e-05,3.523288614815101e-05,6.901090091560036e-05,-4.76182067359332e-05,1739367207268.8877
-0.000169637336512,3.898982686223462e-05,-0.0001244161539943,7.062859367579222e-05,-4.438265386852436e-05,1739367207269.3884
-0.0001365583302685,3.29118556692265e-05,-0.0002103657607221,6.400004349416122e-05,-4.268549309927039e-05,1739367207269.8892
-9.658944327384232e-05,2.196504283347167e-05,-0.000226088654017,5.246113141765818e-05,-4.507418270804919e-05,1739367207270.39
-4.73506297566928e-05,9.365762707602698e-06,-0.000180485760211,4.388428351376206e-05,-4.704802631749772e-05,1739367207270.891
-6.417410531867063e-07,1.5695015918026911e-06,-0.0001286315236939,3.649407881312072e-05,-4.685191743192263e-05,1739367207271.392
1.5938636352075264e-05,3.255344608987798e-06,-0.0001036356770782,3.27079942508135e-05,-4.7484427341260016e-05,1739367207271.8928
-1.123777201428311e-05,1.3264783774502575e-05,-9.972832049243152e-05,3.229290450690314e-05,-4.843125498155132e-05,1739367207272.3938
-6.344316352624446e-05,2.4818527890602127e-05,-0.0001027447506203,3.182508226018399e-05,-4.75811175419949e-05,1739367207272.8948
-0.0001078062123269,3.267828287789598e-05,-0.0001015164962154,2.8499689506134015e-05,-4.5598684664582834e-05,1739367207273.3958
-0.0001246526371687,3.368011675775051e-05,-9.359273099107668e-05,2.351820694457274e-05,-4.465894380700775e-05,1739367207273.8965
-0.0001131222525145,2.707529165490996e-05,-7.736378029221669e-05,2.182724529120605e-05,-4.463475488591939e-05,1739367207274.3977
-8.7955137132667e-05,1.684812013991177e-05,-5.894237256143242e-05,2.6541092665866017e-05,-4.466277823667042e-05,1739367207274.8984
-6.480551382992417e-05,7.903424375399482e-06,-4.319225990911946e-05,3.607698454288766e-05,-4.514212560025044e-05,1739367207275.3994
-4.8309899284504354e-05,3.017125436599599e-06,-3.040755109395832e-05,4.456408714759164e-05,-4.644101500161924e-05,1739367207275.9
-3.3947755582630634e-05,5.470916448757634e-07,-1.6055197193054482e-05,5.1835813792422414e-05,-4.772310057887808e-05,1739367207276.4011
-2.231656981166452e-05,-8.453429245491861e-07,-3.2954606012935983e-06,5.4900356190046296e-05,-4.845707007916644e-05,1739367207276.902
-1.534183684270829e-05,1.312558651989093e-06,5.394504569267156e-06,5.035505455452949e-05,-4.7042496589710936e-05,1739367207277.403
-1.4599867427023128e-05,1.1126919162052218e-05,1.0379891136835797e-05,4.07007391913794e-05,-4.374644049676135e-05,1739367207277.9038
-1.515293843112886e-05,2.470311119395774e-05,1.708010495349299e-05,3.430888682487421e-05,-4.167151928413659e-05,1739367207278.4048
-1.3984195902594363e-05,4.197303860564716e-05,2.502174902474508e-05,3.142780769849196e-05,-4.02337645937223e-05,1739367207278.9058
-1.2276337656658144e-05,6.092893090681173e-05,3.06908659695182e-05,2.9022490707575344e-05,-3.703190304804593e-05,1739367207279.4067
-1.1265161447227e-05,7.868713146308437e-05,3.3249587431782857e-05,2.721618329815101e-05,-3.370966805960052e-05,1739367207279.9077
-1.177709418698214e-05,8.926087321015075e-05,3.455921250861138e-05,2.2630782041233036e-05,-3.013828063558321e-05,1739367207280.4084
-1.4845476471236909e-05,8.746311505092308e-05,3.5218130506109446e-05,1.3644059436046518e-05,-2.9031562007730827e-05,1739367207280.9094
-2.107119325955864e-05,7.788415678078309e-05,3.2974214263958856e-05,7.735967301414348e-06,-3.05000849039061e-05,1739367207281.4104
-2.9090935640851967e-05,6.551831029355526e-05,3.055894194403663e-05,5.156701263331343e-06,-3.1422212487086654e-05,1739367207281.9111
-3.238078352296725e-05,5.169067662791349e-05,3.11378353217151e-05,5.0118210310756695e-06,-3.455367186688818e-05,1739367207282.412
-3.2516498322365806e-05,3.849888889817521e-05,3.124871000181884e-05,3.786792831306229e-06,-3.761021434911527e-05,1739367207282.913
-3.2116175134433433e-05,2.966881220345385e-05,3.118712265859358e-05,1.947428472703905e-06,-3.889141225954518e-05,1739367207283.4138
-3.0392360713449307e-05,2.3830076315789483e-05,3.172412471030839e-05,4.042749424115755e-06,-3.987283344031312e-05,1739367207283.9148
-3.070691673201509e-05,1.786715984053444e-05,3.145471418974921e-05,6.816545464971568e-06,-4.16778821090702e-05,1739367207284.4158
-3.560787081369199e-05,1.2730482922052032e-05,3.032713539141696e-05,5.870352197234752e-06,-4.412416092236526e-05,1739367207284.9167
-4.182128031970933e-05,1.0802307770063637e-05,3.0033850634936243e-05,4.114773219043855e-06,-4.458023613551632e-05,1739367207285.4175
-4.82360519526992e-05,1.0760094482975546e-05,2.9317216103663668e-05,3.5459834180073813e-06,-4.54642649856396e-05,1739367207285.9185
-6.0250746173551306e-05,1.0030667908722536e-05,2.8057018425897692e-05,1.311280811933102e-06,-4.636144149117172e-05,1739367207286.4194
-8.128883200697601e-05,6.9531506596831605e-06,2.7270039936411195e-05,-3.4298009268241003e-06,-4.700396311818622e-05,1739367207286.9204
-0.0001072990417014,4.389426067064051e-06,2.738003422564361e-05,-6.603208476008149e-06,-4.67100617242977e-05,1739367207287.4211
-0.0001246941101271,3.107063321294845e-06,3.1902418413665146e-05,-5.463650722958846e-06,-4.552040991256945e-05,1739367207287.922
-0.0001242827565874,1.788383883649658e-06,3.966668009525165e-05,-2.855452066796716e-06,-4.446178354555741e-05,1739367207288.423
-0.0001100619119824,-4.888514695267077e-07,4.910596180707216e-05,-7.342981689362205e-07,-4.3630676373140886e-05,1739367207288.924
-9.076238347915933e-05,-4.123333383176941e-06,5.797496123705059e-05,-1.3068281532468973e-06,-4.400431498652324e-05,1739367207289.4248
-6.860533903818578e-05,-7.056239610392368e-06,6.24988679192029e-05,-4.70006716568605e-06,-4.5022818085271865e-05,1739367207289.9258
-4.282711597625166e-05,-9.543614396534394e-06,5.809895810671151e-05,-9.824541848502122e-06,-4.645451554097235e-05,1739367207290.4268
-1.3685555131814908e-05,-1.1957632523262872e-05,4.936814366374165e-05,-1.2804734978999475e-05,-4.818117668037303e-05,1739367207290.9275
1.6340889487764798e-05,-1.3045730156591162e-05,4.320029620430432e-05,-1.1673564586089924e-05,-5.023689664085396e-05,1739367207291.4285
4.705686296802014e-05,-1.269258154934505e-05,3.982940688729286e-05,-8.124338819470722e-06,-5.119920388096944e-05,1739367207291.9294
7.617463415954262e-05,-1.2237873306730762e-05,3.797948374995031e-05,-5.931187843088992e-06,-5.035442882217467e-05,1739367207292.4304
9.131729893852024e-05,-1.1180135516042355e-05,3.617139009293169e-05,-5.089748810860328e-06,-4.792761683347635e-05,1739367207292.9314
8.170000364771113e-05,-1.0991243470925838e-05,3.160281994496472e-05,-4.86190992887714e-06,-4.582885230774991e-05,1739367207293.432
5.6367749493801966e-05,-1.1066288607253227e-05,2.522117574699223e-05,-4.013295438198838e-06,-4.387797525851056e-05,1739367207293.933
3.989730612374842e-05,-9.841472092375623e-06,1.890762723633088e-05,-5.292397872835863e-06,-4.3753065256169066e-05,1739367207294.434
3.4769520425470546e-05,-9.070052328752354e-06,1.578263436385896e-05,-1.4095767255639656e-05,-4.645973604056053e-05,1739367207294.935
2.799272078846116e-05,-1.071742553904187e-05,1.5777430235175416e-05,-2.149696956621483e-05,-4.905013338429853e-05,1739367207295.4358
1.3468888028000949e-05,-1.3436655535770116e-05,3.27902780554723e-05,-1.972495738300495e-05,-4.9232286983169615e-05,1739367207295.9368
-9.324400707555467e-06,-1.4866118362988344e-05,0.0001334002008661,-1.474513737775851e-05,-4.808886296814308e-05,1739367207296.4375
-3.053516411455348e-05,-1.3204567039792892e-05,0.0002721592609304,-1.058946054399712e-05,-4.754954716190696e-05,1739367207296.9387
-4.262826769263484e-05,-1.0281411960022524e-05,0.0002932304632849,-7.260250185936456e-06,-4.8191061068791896e-05,1739367207297.4397
-4.822491609957069e-05,-1.065462038241094e-05,0.0001848193787736,-6.696212039969396e-06,-4.905698369839229e-05,1739367207297.9404
-6.820447015343234e-05,-1.3696967471332757e-05,3.4663371479837224e-05,-1.1450744750618467e-05,-4.954680844093673e-05,1739367207298.4414
-0.0001126067145378,-1.647401586524211e-05,-9.127963130595164e-05,-2.0468007278395817e-05,-5.116074316902086e-05,1739367207298.9424
-0.0001633134088478,-1.5167950550676323e-05,-0.0001670216588536,-2.821396446961444e-05,-5.1478768000379205e-05,1739367207299.443
-0.0001918143243528,-9.701558155938985e-06,-0.0001842983620008,-2.7463504011393525e-05,-5.1363411330385134e-05,1739367207299.944
-0.0001876827300293,-3.386074013178586e-06,-0.0001596466754563,-1.858618088590447e-05,-5.137053449288942e-05,1739367207300.445
-0.0001644290168769,1.4032890476300963e-06,-0.0001227874745381,-7.438773536705412e-06,-5.1025930588366464e-05,1739367207300.9458
-0.0001413080608472,6.384362677636091e-06,-8.943240391090512e-05,2.3463910565624246e-06,-4.892465949524194e-05,1739367207301.4468
-0.0001264263410121,1.3012755516683684e-05,-6.526139623019844e-05,1.299217365158256e-05,-4.444842124939896e-05,1739367207301.9478
-0.0001145095957326,1.98639008885948e-05,-4.81526403746102e-05,3.7960457120789215e-05,-4.010792326880619e-05,1739367207302.4487
-9.942432370735332e-05,2.4493900127708912e-05,-3.821511927526444e-05,8.548247569706291e-05,-3.7465888453880325e-05,1739367207302.9497
-7.568607543362305e-05,2.667027001734823e-05,-2.9834642191417515e-05,0.0001282279408769,-3.664446194306947e-05,1739367207303.4504
-4.782166070071981e-05,2.721898999880068e-05,1.1242160326219164e-05,0.0001312474923906,-3.654066313174553e-05,1739367207303.9514
-2.6301813704776578e-05,2.801518166961614e-05,0.0001579503441462,0.0001078424975275,-3.672329694381915e-05,1739367207304.4524
-1.5873811207711697e-05,3.1173956813290715e-05,0.0004005240625701,0.0001059468559105,-3.768043097807095e-05,1739367207304.9531
-1.0920043678197544e-05,3.3933356462512165e-05,0.0005918926908634,0.0001535027986392,-4.039895793539472e-05,1739367207305.454
2.925954163401912e-07,3.299771560705267e-05,0.0005416044150479,0.0001926683326018,-4.069938222528435e-05,1739367207305.955
3.227085471735336e-05,2.9790084226988256e-05,0.0002400316589046,0.0001636455708649,-3.968637611251325e-05,1739367207306.456
7.240685954457149e-05,2.3952399715199132e-05,-0.0001127258947235,9.66044535744004e-05,-3.882036253344268e-05,1739367207306.9568
